# #Wavelength [um]    Spectral Flux [W/m2/um] for R=0.1*Rsol at 10 pc
2.000333353419446181e-01 6.633204616303904017e-35
2.001000282544393716e-01 6.771728980930634125e-35
2.001667434029507087e-01 6.913123263408288668e-35
2.002334807948923656e-01 7.057446440673535405e-35
2.003002404376805767e-01 7.204758716736705879e-35
2.003670223387338523e-01 7.355121511181445877e-35
2.004338265054734780e-01 7.508597482480539889e-35
2.005006529453228215e-01 7.665250592388333841e-35
2.005675016657081089e-01 7.825146093317671484e-35
2.006343726740577593e-01 7.988350567352870282e-35
2.007012659778028563e-01 8.154931953132889200e-35
2.007681815843769535e-01 8.324959558665608315e-35
2.008351195012158252e-01 8.498504132441000728e-35
2.009020797357580213e-01 8.675637849451543579e-35
2.009690622954444505e-01 8.856434338691620617e-35
2.010360671877184646e-01 9.040968774773492513e-35
2.011030944200260517e-01 9.229317799625077452e-35
2.011701439998155039e-01 9.421559646050819164e-35
2.012372159345377221e-01 9.617774172513344846e-35
2.013043102316459942e-01 9.818042795410785084e-35
2.013714268985961897e-01 1.002244863796325284e-34
2.014385659428465647e-01 1.023107649719374557e-34
2.015057273718580122e-01 1.044401287618544208e-34
2.015729111930936457e-01 1.066134609196039518e-34
2.016401174140193819e-01 1.088316618273970230e-34
2.017073460421033582e-01 1.110956507323729908e-34
2.017745970848165427e-01 1.134063651752363742e-34
2.018418705496318466e-01 1.157647621441162145e-34
2.019091664440252343e-01 1.181718178748668034e-34
2.019764847754748904e-01 1.206285284339373694e-34
2.020438255514614978e-01 1.231359101190309250e-34
2.021111887794682371e-01 1.256949996442842688e-34
2.021785744669808427e-01 1.283068552129761357e-34
2.022459826214875744e-01 1.309725562944867353e-34
2.023134132504791072e-01 1.336932040323744630e-34
2.023808663614485859e-01 1.364699223863603159e-34
2.024483419618916535e-01 1.393038578917803947e-34
2.025158400593067010e-01 1.421961803463028897e-34
2.025833606611942284e-01 1.451480832774929014e-34
2.026509037750575115e-01 1.481607841570265774e-34
2.027184694084022409e-01 1.512355256673150356e-34
2.027860575687366329e-01 1.543735754303208674e-34
2.028536682635713739e-01 1.575762264862598119e-34
2.029213015004195930e-01 1.608447989254335585e-34
2.029889572867970560e-01 1.641806384607836896e-34
2.030566356302220266e-01 1.675851186336211628e-34
2.031243365382152388e-01 1.710596414229876923e-34
2.031920600182997860e-01 1.746056360027507947e-34
2.032598060780015370e-01 1.782245614080238694e-34
2.033275747248486920e-01 1.819179059161601347e-34
2.033953659663720048e-01 1.856871876085943696e-34
2.034631798101047551e-01 1.895339562941747483e-34
2.035310162635826925e-01 1.934597918133910481e-34
2.035988753343440927e-01 1.974663069967811454e-34
2.036667570299298957e-01 2.015551466118363823e-34
2.037346613578833732e-01 2.057279894171370729e-34
2.038025883257502113e-01 2.099865477799320461e-34
2.038705379410788443e-01 2.143325687016012747e-34
2.039385102114202319e-01 2.187678345144389651e-34
2.040065051443276378e-01 2.232941631893817439e-34
2.040745227473570733e-01 2.279134102428153660e-34
2.041425630280668535e-01 2.326274683071067555e-34
2.042106259940180135e-01 2.374382682671341213e-34
2.042787116527738922e-01 2.423477795907172665e-34
2.043468200119006872e-01 2.473580123993293032e-34
2.044149510789666779e-01 2.524710169960796056e-34
2.044831048615429747e-01 2.576888846346807469e-34
2.045512813672031860e-01 2.630137501911919994e-34
2.046194806035233626e-01 2.684477897776484191e-34
2.046877025780821091e-01 2.739932248600124420e-34
2.047559472984605278e-01 2.796523207683218496e-34
2.048242147722422746e-01 2.854273895522327125e-34
2.048925050070136422e-01 2.913207899499937238e-34
2.049608180103632826e-01 2.973349261810847823e-34
2.050291537898824290e-01 3.034722541491331959e-34
2.050975123531648958e-01 3.097352766047078883e-34
2.051658937078068567e-01 3.161265484136291820e-34
2.052342978614073443e-01 3.226486754131666253e-34
2.053027248215676392e-01 3.293043159775982624e-34
2.053711745958917423e-01 3.360961814619666795e-34
2.054396471919859579e-01 3.430270390721670480e-34
2.055081426174593107e-01 3.500997111852168311e-34
2.055766608799234618e-01 3.573170770445892846e-34
2.056452019869922931e-01 3.646820732408245758e-34
2.057137659462825452e-01 3.721976968219650177e-34
2.057823527654132068e-01 3.798670045502649767e-34
2.058509624520060421e-01 3.876931147419072935e-34
2.059195950136853137e-01 3.956792077781983151e-34
2.059882504580776430e-01 4.038285302174325145e-34
2.060569287928124271e-01 4.121443903126635489e-34
2.061256300255215612e-01 4.206301673399017720e-34
2.061943541638392718e-01 4.292893055921307983e-34
2.062631012154026722e-01 4.381253186073941965e-34
2.063318711878511513e-01 4.471417921772004325e-34
2.064006640888267352e-01 4.563423826006928885e-34
2.064694799259740032e-01 4.657308221943908687e-34
2.065383187069400606e-01 4.753109149600430664e-34
2.066071804393747324e-01 4.850865439162362683e-34
2.066760651309300367e-01 4.950616692820028459e-34
2.067449727892608502e-01 5.052403299429334648e-34
2.068139034220245753e-01 5.156266477668769197e-34
2.068828570368809461e-01 5.262248265317605281e-34
2.069518336414924720e-01 5.370391544583572208e-34
2.070208332435241882e-01 5.480740058963658465e-34
2.070898558506435450e-01 5.593338420177156459e-34
2.071589014705207121e-01 5.708232155926358242e-34
2.072279701108283301e-01 5.825467697915277456e-34
2.072970617792416481e-01 5.945092398919176904e-34
2.073661764834383581e-01 6.067154583654353336e-34
2.074353142310989551e-01 6.191703535859517810e-34
2.075044750299061269e-01 6.318789528076103589e-34
2.075736588875455313e-01 6.448463841362382783e-34
2.076428658117050741e-01 6.580778773223199168e-34
2.077120958100753256e-01 6.715787693863532432e-34
2.077813488903494654e-01 6.853545031829166845e-34
2.078506250602231986e-01 6.994106306823436054e-34
2.079199243273949227e-01 7.137528138358642571e-34
2.079892466995653943e-01 7.283868306679024077e-34
2.080585921844379516e-01 7.433185737049206704e-34
2.081279607897187078e-01 7.585540521399586195e-34
2.081973525231161637e-01 7.740993997375224970e-34
2.082667673923413176e-01 7.899608674776912985e-34
2.083362054051080270e-01 8.061448358057363034e-34
2.084056665691325916e-01 8.226578099798232590e-34
2.084751508921337260e-01 8.395064300608683632e-34
2.085446583818328925e-01 8.566974628896189252e-34
2.086141890459540238e-01 8.742378153907561485e-34
2.086837428922236892e-01 8.921345295156700401e-34
2.087533199283710950e-01 9.103947930592245763e-34
2.088229201621278897e-01 9.290259309497804609e-34
2.088925436012284420e-01 9.480354196859456293e-34
2.089621902534096187e-01 9.674308836037727253e-34
2.090318601264107845e-01 9.872200976798074491e-34
2.091015532279739131e-01 1.007410995954177136e-33
2.091712695658437537e-01 1.028011669284257831e-33
2.092410091477674705e-01 1.049030370245493464e-33
2.093107719814948364e-01 1.070475516333652097e-33
2.093805580747781780e-01 1.092355691210881151e-33
2.094503674353725420e-01 1.114679654044753047e-33
2.095202000710353341e-01 1.137456336983011965e-33
2.095900559895266801e-01 1.160694848410363387e-33
2.096599351986093152e-01 1.184404482873634715e-33
2.097298377060485552e-01 1.208594718383541387e-33
2.097997635196123811e-01 1.233275222166801022e-33
2.098697126470710494e-01 1.258455854409979724e-33
2.099396850961977035e-01 1.284146669685966024e-33
2.100096808747680677e-01 1.310357927936006813e-33
2.100796999905602536e-01 1.337100091462437361e-33
2.101497424513552592e-01 1.364383831264799951e-33
2.102198082649363864e-01 1.392220028587049116e-33
2.102898974390897679e-01 1.420619786806139080e-33
2.103600099816040347e-01 1.449594428155512031e-33
2.104301459002703434e-01 1.479155500578074363e-33
2.105003052028824040e-01 1.509314779388429508e-33
2.105704878972368133e-01 1.540084280173546851e-33
2.106406939911325826e-01 1.571476255186931358e-33
2.107109234923712215e-01 1.603503200806204852e-33
2.107811764087569872e-01 1.636177859275686170e-33
2.108514527480967737e-01 1.669513235842225881e-33
2.109217525181998620e-01 1.703522579164789473e-33
2.109920757268783642e-01 1.738219420690648615e-33
2.110624223819471124e-01 1.773617548543393645e-33
2.111327924912229648e-01 1.809731025119393843e-33
2.112031860625259994e-01 1.846574199414022421e-33
2.112736031036786255e-01 1.884161702653633356e-33
2.113440436225058616e-01 1.922508453552071076e-33
2.114145076268353352e-01 1.961629678482806253e-33
2.114849951244974768e-01 2.001540892046694490e-33
2.115555061233250489e-01 2.042257924647840058e-33
2.116260406311536724e-01 2.083796929315951916e-33
2.116965986558212720e-01 2.126174364687473626e-33
2.117671802051687147e-01 2.169407028368187441e-33
2.118377852870393374e-01 2.213512047902844329e-33
2.119084139092790309e-01 2.258506891204129715e-33
2.119790660797364057e-01 2.304409368920795273e-33
2.120497418062626260e-01 2.351237654170159577e-33
2.121204410967115483e-01 2.399010276783527817e-33
2.121911639589395826e-01 2.447746134623567076e-33
2.122619104008056923e-01 2.497464496089436614e-33
2.123326804301716719e-01 2.548185026342530288e-33
2.124034740549016753e-01 2.599927761822390498e-33
2.124742912828626595e-01 2.652713146116267729e-33
2.125451321219241629e-01 2.706562038803223881e-33
2.126159965799583329e-01 2.761495693046794731e-33
2.126868846648399536e-01 2.817535799067146157e-33
2.127577963844464737e-01 2.874704472225432000e-33
2.128287317466578121e-01 2.933024260942686315e-33
2.128996907593566912e-01 2.992518177518264731e-33
2.129706734304284144e-01 3.053209668003331844e-33
2.130416797677608942e-01 3.115122654397739017e-33
2.131127097792446523e-01 3.178281545004623462e-33
2.131837634727728747e-01 3.242711207875200894e-33
2.132548408562413289e-01 3.308437028335586143e-33
2.133259419375485300e-01 3.375484863245626463e-33
2.133970667245954633e-01 3.443881119918756333e-33
2.134682152252859177e-01 3.513652696394031524e-33
2.135393874475261800e-01 3.584827049954113235e-33
2.136105833992251735e-01 3.657432154450706939e-33
2.136818030882946251e-01 3.731496550965586706e-33
2.137530465226487597e-01 3.807049360098063480e-33
2.138243137102044944e-01 3.884120249973841305e-33
2.138956046588812998e-01 3.962739497665364528e-33
2.139669193766012834e-01 4.042937972007486726e-33
2.140382578712894945e-01 4.124747144627474087e-33
2.141096201508731200e-01 4.207900755402042263e-33
2.141810062232823719e-01 4.293020003093357570e-33
2.142524160964500157e-01 4.379847942574416381e-33
2.143238497783114260e-01 4.468418611141241056e-33
2.143953072768046697e-01 4.558766710217662105e-33
2.144667885998703394e-01 4.650927644199015338e-33
2.145382937554518032e-01 4.744937508453404717e-33
2.146098227514950108e-01 4.840833111685990672e-33
2.146813755959486869e-01 4.938651979905947001e-33
2.147529522967639715e-01 5.038035409028927678e-33
2.148245528618948630e-01 5.139647643071711179e-33
2.148961772992979413e-01 5.243453362784915567e-33
2.149678256169323953e-01 5.349339599860563082e-33
2.150394978227601894e-01 5.457347751530318473e-33
2.151111939247458416e-01 5.567519990460556281e-33
2.151829139308563954e-01 5.679899341649654774e-33
2.152546578490618367e-01 5.794529701647356562e-33
2.153264256873347049e-01 5.911455788216220813e-33
2.153982174536501759e-01 6.030723233603166387e-33
2.154700331559858406e-01 6.152378559666840784e-33
2.155418728023224262e-01 6.276469205504616225e-33
2.156137364006430468e-01 6.402706929217350985e-33
2.156856239589334256e-01 6.531390774076342504e-33
2.157575354851821448e-01 6.663060439958781829e-33
2.158294709873802009e-01 6.797364100282418215e-33
2.159014304735215051e-01 6.934354062579847801e-33
2.159734139516024387e-01 7.074083611174920011e-33
2.160454214296221587e-01 7.216607120707061955e-33
2.161174529155825697e-01 7.361980021692470624e-33
2.161895084174878801e-01 7.510258822043697403e-33
2.162615879433454069e-01 7.661501169649915969e-33
2.163336915011650208e-01 7.815765830938109499e-33
2.164058190989590347e-01 7.973112730456728000e-33
2.164779707447426205e-01 8.133602971198728148e-33
2.165501464465336701e-01 8.297298840164282074e-33
2.166223462123525456e-01 8.464263882495484595e-33
2.166945700502225791e-01 8.634562874992545730e-33
2.167668179681694340e-01 8.808261868292721210e-33
2.168390899742217715e-01 8.984928927326376165e-33
2.169113860764107504e-01 9.165190533052854669e-33
2.169837062827701113e-01 9.349473041447873580e-33
2.170560506013366198e-01 9.537432250665038315e-33
2.171284190401493175e-01 9.729140918204770289e-33
2.172008116072502437e-01 9.924673268987653315e-33
2.172732283106838802e-01 1.012410496275247218e-32
2.173456691584975120e-01 1.032751314619187646e-32
2.174181341587410610e-01 1.053497645853819290e-32
2.174906233194673355e-01 1.074657514408874721e-32
2.175631366487315033e-01 1.096239093904625907e-32
2.176356741545915907e-01 1.118250724229599048e-32
2.177082358451083166e-01 1.140700904656182702e-32
2.177808217283450920e-01 1.163598307709228877e-32
2.178534318123679092e-01 1.186951766934155542e-32
2.179260661052455916e-01 1.210770296024382336e-32
2.179987246150495994e-01 1.235063080156485122e-32
2.180714073498540018e-01 1.259839491922206746e-32
2.181441143177356989e-01 1.285109077653859963e-32
2.182168455267741725e-01 1.310881578168231542e-32
2.182896009850516517e-01 1.337166922615930510e-32
2.183623807006531414e-01 1.363975231453661804e-32
2.184351846816661447e-01 1.391316828780305500e-32
2.185080129361809675e-01 1.419202238109248343e-32
2.185808654722906363e-01 1.447535293942342363e-32
2.186537422980908973e-01 1.476466561581005541e-32
2.187266434216800781e-01 1.506043662580155261e-32
2.187995688511593373e-01 1.536208627618230497e-32
2.188725185946324148e-01 1.566973046940894837e-32
2.189454926602059093e-01 1.598348736302944653e-32
2.190184910559889175e-01 1.630347738814511349e-32
2.190915137900934506e-01 1.662982339980123533e-32
2.191645608706340176e-01 1.696265062286419691e-32
2.192376323057280141e-01 1.730208671973981581e-32
2.193107281034955280e-01 1.764826184988177790e-32
2.193838482720592009e-01 1.800130867634309631e-32
2.194569928195444219e-01 1.836136252151058491e-32
2.195301617540793837e-01 1.872856131653826975e-32
2.196033550837951098e-01 1.910304564276570732e-32
2.196765728168250387e-01 1.948495893623182457e-32
2.197498149613053564e-01 1.987444728455108217e-32
2.198230815253751358e-01 2.027165973029960598e-32
2.198963725171761974e-01 2.067674813788340608e-32
2.199696879448528597e-01 2.108986747196590195e-32
2.200430278165522724e-01 2.151117553714332325e-32
2.201163921404244161e-01 2.194083333943473251e-32
2.201897809246217141e-01 2.237900498842507827e-32
2.202631941772993929e-01 2.282585772042941411e-32
2.203366319066156487e-01 2.328156214138504393e-32
2.204100941207310926e-01 2.374629213207681042e-32
2.204835808278091391e-01 2.422022494336330113e-32
2.205570920360162002e-01 2.470354127443868070e-32
2.206306277535209359e-01 2.519642529822254954e-32
2.207041879884950875e-01 2.569906488001871491e-32
2.207777727491129216e-01 2.621165146282876181e-32
2.208513820435515085e-01 2.673438022543340851e-32
2.209250158799907215e-01 2.726745007971753178e-32
2.209986742666131265e-01 2.781106397096126261e-32
2.210723572116037872e-01 2.836542856297286304e-32
2.211460647231507926e-01 2.892920645453522757e-32
2.212197968094448131e-01 2.950318223258736651e-32
2.212935534786794056e-01 3.009096938074460359e-32
2.213673347390506529e-01 3.069037218447363414e-32
2.214411405987574410e-01 3.130161819989727401e-32
2.215149710660014593e-01 3.192493938284231726e-32
2.215888261489870892e-01 3.256057212406185739e-32
2.216627058559213492e-01 3.320875753689608028e-32
2.217366101950142554e-01 3.386974131638184115e-32
2.218105391744781829e-01 3.454332292903364955e-32
2.218844928025285601e-01 3.453228304334273063e-32
2.219584710873834243e-01 3.521414944408594404e-32
2.220324740372637273e-01 3.590931095706969791e-32
2.221065016603927245e-01 3.599923680324492684e-32
2.221805539649969741e-01 3.653280442923293722e-32
2.222546309593053104e-01 3.724756525691183742e-32
2.223287326515496209e-01 3.797287324608384372e-32
2.224028590499643465e-01 3.781736708799689622e-32
2.224770101627867591e-01 3.854999516293024727e-32
2.225511859982568508e-01 3.929648315668225218e-32
2.226253865646174723e-01 4.005708217413122652e-32
2.226996118701140004e-01 4.052552534624876469e-32
2.227738619229947814e-01 4.056084778996771052e-32
2.228481367315106876e-01 4.133725509599264148e-32
2.229224363039155887e-01 4.212806660634873297e-32
2.229967606484659637e-01 4.293353629720792680e-32
2.230711097734211501e-01 4.375392270111322174e-32
2.231454836870430392e-01 4.395511671724149263e-32
2.232198823975963531e-01 4.415656281560897116e-32
2.232943059133486452e-01 4.498972779041056920e-32
2.233687542425702999e-01 4.583798775119348025e-32
2.234432273935342272e-01 4.670159557060200388e-32
2.235177253745162795e-01 4.758080843016693771e-32
2.235922481937950568e-01 4.847588804099777494e-32
2.236667958596517958e-01 4.904264411636883986e-32
2.237413683803705922e-01 4.869856021657221059e-32
2.238159657642382616e-01 4.960130653219209150e-32
2.238905880195443676e-01 5.051992244099151716e-32
2.239652351545813047e-01 5.145465834969618128e-32
2.240399071776442985e-01 5.240576943678671087e-32
2.241146040970311837e-01 5.337350990436257843e-32
2.241893259210424594e-01 5.435814272766884348e-32
2.242640726579817612e-01 5.535993265727762762e-32
2.243388443161551671e-01 5.637914181017803776e-32
2.244136409038716973e-01 5.568549077670089301e-32
2.244884624294430642e-01 5.637942921507158486e-32
2.245633089011838113e-01 5.739992983286816237e-32
2.246381803274111189e-01 5.843762286751970026e-32
2.247130767164451093e-01 5.949275799206198000e-32
2.247879980766085972e-01 6.056558293120138316e-32
2.248629444162272006e-01 6.165634868979861313e-32
2.249379157436292576e-01 6.276531076505159707e-32
2.250129120671459648e-01 6.389272904302696823e-32
2.250879333951112116e-01 6.503885843944711226e-32
2.251629797358616902e-01 6.620395377033055113e-32
2.252380510977369521e-01 6.738750887867701558e-32
2.253131474890791575e-01 6.716362324527318820e-32
2.253882689182334642e-01 6.695925685112972782e-32
2.254634153935476393e-01 6.813316671947774788e-32
2.255385869233724194e-01 6.932570121389619707e-32
2.256137835160610117e-01 7.053707765560650355e-32
2.256890051799696761e-01 7.176753340496466496e-32
2.257642519234574763e-01 7.301729939820197858e-32
2.258395237548860568e-01 7.428660530855034925e-32
2.259148206826199490e-01 7.557568151003464558e-32
2.259901427150266262e-01 7.688475619618275789e-32
2.260654898604761431e-01 7.821406134054566704e-32
2.261408621273413300e-01 7.956383240398544122e-32
2.262162595239979868e-01 8.093429397647450869e-32
2.262916820588246058e-01 8.232567771991962606e-32
2.263671297402023996e-01 8.373821217109940276e-32
2.264426025765155503e-01 8.517212275018758945e-32
2.265181005761509325e-01 8.662763079229075963e-32
2.265936237474981685e-01 8.563690105235978708e-32
2.266691720989497116e-01 8.660683164882111362e-32
2.267447456389009020e-01 8.805852668446145610e-32
2.268203443757498550e-01 8.953115602808390642e-32
2.268959683178973508e-01 9.102489772552304005e-32
2.269716174737470005e-01 9.253992354987978522e-32
2.270472918517054128e-01 9.407641979974933285e-32
2.271229914601818334e-01 9.563455434886559411e-32
2.271987163075883942e-01 9.721450658883821153e-32
2.272744664023398364e-01 9.881645468957440160e-32
2.273502417528539543e-01 1.004405398766429190e-31
2.274260423675512066e-01 1.020869189631514786e-31
2.275018682548549664e-01 1.037557667246686403e-31
2.275777194231912992e-01 1.054472187044256534e-31
2.276535958809891014e-01 1.071614078149372182e-31
2.277294976366801560e-01 1.088984788457866966e-31
2.278054246986989662e-01 1.106585429471470741e-31
2.278813770754829215e-01 1.124417413566923755e-31
2.279573547754721874e-01 1.142481885623462528e-31
2.280333578071098155e-01 1.160779851962384357e-31
2.281093861788414112e-01 1.179312345278668383e-31
2.281854398991157440e-01 1.198080099718154170e-31
2.282615189763842478e-01 1.217084053711392548e-31
2.283376234191011045e-01 1.209360249663959647e-31
