# #Wavelength [um]    Spectral Flux [W/m2/um] for R=0.1*Rsol at 10 pc
2.000333353419446181e-01 1.197371253031971750e-30
2.001000282544393716e-01 1.213876547218015124e-30
2.001667434029507087e-01 1.230609758463658725e-30
2.002334807948923656e-01 1.247573924299612292e-30
2.003002404376805767e-01 1.264772379837438855e-30
2.003670223387338523e-01 1.282208336402803484e-30
2.004338265054734780e-01 1.299885062395491193e-30
2.005006529453228215e-01 1.317805811249456879e-30
2.005675016657081089e-01 1.335974096100788185e-30
2.006343726740577593e-01 1.354393146034983237e-30
2.007012659778028563e-01 1.373066524197918878e-30
2.007681815843769535e-01 1.391997411743017149e-30
2.008351195012158252e-01 1.411189906733637087e-30
2.009020797357580213e-01 1.430647265454353193e-30
2.009690622954444505e-01 1.450373050858159884e-30
2.010360671877184646e-01 1.470371073546707660e-30
2.011030944200260517e-01 1.490645206945530508e-30
2.011701439998155039e-01 1.511198879679815393e-30
2.012372159345377221e-01 1.532036242025119615e-30
2.013043102316459942e-01 1.553160994369744547e-30
2.013714268985961897e-01 1.574577241821084786e-30
2.014385659428465647e-01 1.596289165687919985e-30
2.015057273718580122e-01 1.618300347615428044e-30
2.015729111930936457e-01 1.640614983263519365e-30
2.016401174140193819e-01 1.663237486053227797e-30
2.017073460421033582e-01 1.686171946386417245e-30
2.017745970848165427e-01 1.709422417681884297e-30
2.018418705496318466e-01 1.732993586479395094e-30
2.019091664440252343e-01 1.756889479897227966e-30
2.019764847754748904e-01 1.781115338443460960e-30
2.020438255514614978e-01 1.805674707240061243e-30
2.021111887794682371e-01 1.830572556882324400e-30
2.021785744669808427e-01 1.855813472167067019e-30
2.022459826214875744e-01 1.881402512827021482e-30
2.023134132504791072e-01 1.907343980082474129e-30
2.023808663614485859e-01 1.933642481490682266e-30
2.024483419618916535e-01 1.960303303639593143e-30
2.025158400593067010e-01 1.987331348983117709e-30
2.025833606611942284e-01 2.014731629779329710e-30
2.026509037750575115e-01 2.042509116353337573e-30
2.027184694084022409e-01 2.070669043952160217e-30
2.027860575687366329e-01 2.099217012597939452e-30
2.028536682635713739e-01 2.128157640383306772e-30
2.029213015004195930e-01 2.157496543331874238e-30
2.029889572867970560e-01 2.187239125681868279e-30
2.030566356302220266e-01 2.217391237780774247e-30
2.031243365382152388e-01 2.247957891488614798e-30
2.031920600182997860e-01 2.278944862302527623e-30
2.032598060780015370e-01 2.310358407089767186e-30
2.033275747248486920e-01 2.342203355162050175e-30
2.033953659663720048e-01 2.374486672540680956e-30
2.034631798101047551e-01 2.407213810675989255e-30
2.035310162635826925e-01 2.440390321767581698e-30
2.035988753343440927e-01 2.474023126822566918e-30
2.036667570299298957e-01 2.508118043218202510e-30
2.037346613578833732e-01 2.542682075643810160e-30
2.038025883257502113e-01 2.577720107316929555e-30
2.038705379410788443e-01 2.613239699053117553e-30
2.039385102114202319e-01 2.649246823179196655e-30
2.040065051443276378e-01 2.685748663407457935e-30
2.040745227473570733e-01 2.722751482582496751e-30
2.041425630280668535e-01 2.760262020498243869e-30
2.042106259940180135e-01 2.798287100878203467e-30
2.042787116527738922e-01 2.836834586791145494e-30
2.043468200119006872e-01 2.875910861751432638e-30
2.044149510789666779e-01 2.915523053378097662e-30
2.044831048615429747e-01 2.955678323648791847e-30
2.045512813672031860e-01 2.996384144671985222e-30
2.046194806035233626e-01 3.037648090009537963e-30
2.046877025780821091e-01 3.079477352239978633e-30
2.047559472984605278e-01 3.121880190566072278e-30
2.048242147722422746e-01 3.164864402472869932e-30
2.048925050070136422e-01 3.208437004141304433e-30
2.049608180103632826e-01 3.252606194246307822e-30
2.050291537898824290e-01 3.297380549725494052e-30
2.050975123531648958e-01 3.342767976852481690e-30
2.051658937078068567e-01 3.388776941610068082e-30
2.052342978614073443e-01 3.435414953232018867e-30
2.053027248215676392e-01 3.482691227017987510e-30
2.053711745958917423e-01 3.530613852309999927e-30
2.054396471919859579e-01 3.579192602759695068e-30
2.055081426174593107e-01 3.628435538967264330e-30
2.055766608799234618e-01 3.678351480350628885e-30
2.056452019869922931e-01 3.728949475325749044e-30
2.057137659462825452e-01 3.780239686765969169e-30
2.057823527654132068e-01 3.832230024796962395e-30
2.058509624520060421e-01 3.884929867408482993e-30
2.059195950136853137e-01 3.938350462683287755e-30
2.059882504580776430e-01 3.992500676085650799e-30
2.060569287928124271e-01 4.047389077735115853e-30
2.061256300255215612e-01 4.103026715442679972e-30
2.061943541638392718e-01 4.159423769024448134e-30
2.062631012154026722e-01 4.216589575172278453e-30
2.063318711878511513e-01 4.274534894375422717e-30
2.064006640888267352e-01 4.333270369975488435e-30
2.064694799259740032e-01 4.392806532057027718e-30
2.065383187069400606e-01 4.453154817009907875e-30
2.066071804393747324e-01 4.514323888591904932e-30
2.066760651309300367e-01 4.576326380451205643e-30
2.067449727892608502e-01 4.639173406550712218e-30
2.068139034220245753e-01 4.702875618298419002e-30
2.068828570368809461e-01 4.767444286013727601e-30
2.069518336414924720e-01 4.832892654827087068e-30
2.070208332435241882e-01 4.899230811643810035e-30
2.070898558506435450e-01 4.966471327251807174e-30
2.071589014705207121e-01 5.034625544251698359e-30
2.072279701108283301e-01 5.103706144843744625e-30
2.072970617792416481e-01 5.173725703690591932e-30
2.073661764834383581e-01 5.244695567856039203e-30
2.074353142310989551e-01 5.316629549667578538e-30
2.075044750299061269e-01 5.389540801887974899e-30
2.075736588875455313e-01 5.463440826168013845e-30
2.076428658117050741e-01 5.538345005244458030e-30
2.077120958100753256e-01 5.614263567316473306e-30
2.077813488903494654e-01 5.691211614298333667e-30
2.078506250602231986e-01 5.769203140604552498e-30
2.079199243273949227e-01 5.848251407651417755e-30
2.079892466995653943e-01 5.928370812066465087e-30
2.080585921844379516e-01 6.009576159263415596e-30
2.081279607897187078e-01 6.091880410713543357e-30
2.081973525231161637e-01 6.175298010934337073e-30
2.082667673923413176e-01 6.259846437839751331e-30
2.083362054051080270e-01 6.345536775238241978e-30
2.084056665691325916e-01 6.432387010450363251e-30
2.084751508921337260e-01 6.520409757613151777e-30
2.085446583818328925e-01 6.609622860059434892e-30
2.086141890459540238e-01 6.700042099905787815e-30
2.086837428922236892e-01 6.791681097410162510e-30
2.087533199283710950e-01 6.884557707603822462e-30
2.088229201621278897e-01 6.978689177592759014e-30
2.088925436012284420e-01 7.074090664142807944e-30
2.089621902534096187e-01 7.170778012799026062e-30
2.090318601264107845e-01 7.268768632855957675e-30
2.091015532279739131e-01 7.368080347966996659e-30
2.091712695658437537e-01 7.468730903046360379e-30
2.092410091477674705e-01 7.570737040813529218e-30
2.093107719814948364e-01 7.674118164176928621e-30
2.093805580747781780e-01 7.778889263026510651e-30
2.094503674353725420e-01 7.885069328234511796e-30
2.095202000710353341e-01 7.992678987263593552e-30
2.095900559895266801e-01 8.101734955933276194e-30
2.096599351986093152e-01 8.212256974892153508e-30
2.097298377060485552e-01 8.324264076679650026e-30
2.097997635196123811e-01 8.437774953817473328e-30
2.098697126470710494e-01 8.552810019399456318e-30
2.099396850961977035e-01 8.669390461328527509e-30
2.100096808747680677e-01 8.787533782720654556e-30
2.100796999905602536e-01 8.907262469979795242e-30
2.101497424513552592e-01 9.028595620077834191e-30
2.102198082649363864e-01 9.151554342570811307e-30
2.102898974390897679e-01 9.276163038337640587e-30
2.103600099816040347e-01 9.402437115629068127e-30
2.104301459002703434e-01 9.530402460033133627e-30
2.105003052028824040e-01 9.660080648049824707e-30
2.105704878972368133e-01 9.791493384585768519e-30
2.106406939911325826e-01 9.924664041831582344e-30
2.107109234923712215e-01 1.005961453064040809e-29
2.107811764087569872e-01 1.019636609708754085e-29
2.108514527480967737e-01 1.033494533968853054e-29
2.109217525181998620e-01 1.047537530637045115e-29
2.109920757268783642e-01 1.061767776614628953e-29
2.110624223819471124e-01 1.076187705001605044e-29
2.111327924912229648e-01 1.090800074797373930e-29
2.112031860625259994e-01 1.105607251522253669e-29
2.112736031036786255e-01 1.120611743829710860e-29
2.113440436225058616e-01 1.135815978536886285e-29
2.114145076268353352e-01 1.151222499918924445e-29
2.114849951244974768e-01 1.166833870713618291e-29
2.115555061233250489e-01 1.182652888244672185e-29
2.116260406311536724e-01 1.198682446739227295e-29
2.116965986558212720e-01 1.214924845009056635e-29
2.117671802051687147e-01 1.231383142219833068e-29
2.118377852870393374e-01 1.248059733483311388e-29
2.119084139092790309e-01 1.264957574104663748e-29
2.119790660797364057e-01 1.282079924282404801e-29
2.120497418062626260e-01 1.299429174075200351e-29
2.121204410967115483e-01 1.317008258402987424e-29
2.121911639589395826e-01 1.334820333423624129e-29
2.122619104008056923e-01 1.352868174104110686e-29
2.123326804301716719e-01 1.371154750654105633e-29
2.124034740549016753e-01 1.389683311782528449e-29
2.124742912828626595e-01 1.408457159895887609e-29
2.125451321219241629e-01 1.427478853748243159e-29
2.126159965799583329e-01 1.446751708068753168e-29
2.126868846648399536e-01 1.466279363834427973e-29
2.127577963844464737e-01 1.486064907527528862e-29
2.128287317466578121e-01 1.506111305989483038e-29
2.128996907593566912e-01 1.526421843354032074e-29
2.129706734304284144e-01 1.546999906200673212e-29
2.130416797677608942e-01 1.567849438699149353e-29
2.131127097792446523e-01 1.588973454459709078e-29
2.131837634727728747e-01 1.610375429485418256e-29
2.132548408562413289e-01 1.632058770123729571e-29
2.133259419375485300e-01 1.654027297040802001e-29
2.133970667245954633e-01 1.676284856374022949e-29
2.134682152252859177e-01 1.698834532464351097e-29
2.135393874475261800e-01 1.721680220300840421e-29
2.136105833992251735e-01 1.744825540275782747e-29
2.136818030882946251e-01 1.768274731093162897e-29
2.137530465226487597e-01 1.792030875754684139e-29
2.138243137102044944e-01 1.816098328235621095e-29
2.138956046588812998e-01 1.840481027285585853e-29
2.139669193766012834e-01 1.865183207578888195e-29
2.140382578712894945e-01 1.890208504994296273e-29
2.141096201508731200e-01 1.914545959042911356e-29
2.141810062232823719e-01 1.940213015676903999e-29
2.142524160964500157e-01 1.966215417370410011e-29
2.143238497783114260e-01 1.992556933945099379e-29
2.143953072768046697e-01 2.019242425019672519e-29
2.144667885998703394e-01 2.046275412272358716e-29
2.145382937554518032e-01 2.073660775141810974e-29
2.146098227514950108e-01 2.101403127513519845e-29
2.146813755959486869e-01 2.129506348457345378e-29
2.147529522967639715e-01 2.156803207325837781e-29
2.148245528618948630e-01 2.185046764322640815e-29
2.148961772992979413e-01 2.214231767068702470e-29
2.149678256169323953e-01 2.243795642599870111e-29
2.150394978227601894e-01 2.273743192067342805e-29
2.151111939247458416e-01 2.304078830829995823e-29
2.151829139308563954e-01 2.334807696765421594e-29
2.152546578490618367e-01 2.365934906869588320e-29
2.153264256873347049e-01 2.397465129745029710e-29
2.153982174536501759e-01 2.429403115260731118e-29
2.154700331559858406e-01 2.461754164384315097e-29
2.155418728023224262e-01 2.494523634975772090e-29
2.156137364006430468e-01 2.526801147047482325e-29
2.156856239589334256e-01 2.559210924939180746e-29
2.157575354851821448e-01 2.593231193475093891e-29
2.158294709873802009e-01 2.627689658722914734e-29
2.159014304735215051e-01 2.662592372458064277e-29
2.159734139516024387e-01 2.697944302964371766e-29
2.160454214296221587e-01 2.733750804177564442e-29
2.161174529155825697e-01 2.770017728829378421e-29
2.161895084174878801e-01 2.806751072596019687e-29
2.162615879433454069e-01 2.843956240358221571e-29
2.163336915011650208e-01 2.881638526854899695e-29
2.164058190989590347e-01 2.919804197106045820e-29
2.164779707447426205e-01 2.958459319487378236e-29
2.165501464465336701e-01 2.997609885146481275e-29
2.166223462123525456e-01 3.037261596471086509e-29
2.166945700502225791e-01 3.077420745083139792e-29
2.167668179681694340e-01 3.118093549736372913e-29
2.168390899742217715e-01 3.158099475518393811e-29
2.169113860764107504e-01 3.198778424010248366e-29
2.169837062827701113e-01 3.240992998079008257e-29
2.170560506013366198e-01 3.283745461022952031e-29
2.171284190401493175e-01 3.327043033011737879e-29
2.172008116072502437e-01 3.370892170916197610e-29
2.172732283106838802e-01 3.415299257343387978e-29
2.173456691584975120e-01 3.460271071500279046e-29
2.174181341587410610e-01 3.505814543903583893e-29
2.174906233194673355e-01 3.551936074700865609e-29
2.175631366487315033e-01 3.598643143103140022e-29
2.176356741545915907e-01 3.645942822593731711e-29
2.177082358451083166e-01 3.693842310966780895e-29
2.177808217283450920e-01 3.742347722036083872e-29
2.178534318123679092e-01 3.791467322596444864e-29
2.179260661052455916e-01 3.841208796434922870e-29
2.179987246150495994e-01 3.891578944123244301e-29
2.180714073498540018e-01 3.942585446108504092e-29
2.181441143177356989e-01 3.994235503761884366e-29
2.182168455267741725e-01 4.046537267625783228e-29
2.182896009850516517e-01 4.099498599229414243e-29
2.183623807006531414e-01 4.153127157957941084e-29
2.184351846816661447e-01 4.207430536301590207e-29
2.185080129361809675e-01 4.262417550093721093e-29
2.185808654722906363e-01 4.316096280096902748e-29
2.186537422980908973e-01 4.371115716575559380e-29
2.187266434216800781e-01 4.428146009343941801e-29
2.187995688511593373e-01 4.485890603602438198e-29
2.188725185946324148e-01 4.544359515364644147e-29
2.189454926602059093e-01 4.603560801219697726e-29
2.190184910559889175e-01 4.663502605875470601e-29
2.190915137900934506e-01 4.724193748210302899e-29
2.191645608706340176e-01 4.785643228201766029e-29
2.192376323057280141e-01 4.847860045920437823e-29
2.193107281034955280e-01 4.910851982578182175e-29
2.193838482720592009e-01 4.974630588796260027e-29
2.194569928195444219e-01 5.039202585923612999e-29
2.195301617540793837e-01 5.104578743748713378e-29
2.196033550837951098e-01 5.170767006762089295e-29
2.196765728168250387e-01 5.237778001626217844e-29
2.197498149613053564e-01 5.305622858918088282e-29
2.198230815253751358e-01 5.374308941633077588e-29
2.198963725171761974e-01 5.443844975217383535e-29
2.199696879448528597e-01 5.514244221213882478e-29
2.200430278165522724e-01 5.585514646395743581e-29
2.201163921404244161e-01 5.657666802253995740e-29
2.201897809246217141e-01 5.730711297189113643e-29
2.202631941772993929e-01 5.804656887394489557e-29
2.203366319066156487e-01 5.879514501144341694e-29
2.204100941207310926e-01 5.955297146404579602e-29
2.204835808278091391e-01 6.032013108105063479e-29
2.205570920360162002e-01 6.109672318176166199e-29
2.206306277535209359e-01 6.188286622699562307e-29
2.207041879884950875e-01 6.267867209585582998e-29
2.207777727491129216e-01 6.348426906726339198e-29
2.208513820435515085e-01 6.429974594245863177e-29
2.209250158799907215e-01 6.512521142975670511e-29
2.209986742666131265e-01 6.596078970073411529e-29
2.210723572116037872e-01 6.680660183437463447e-29
2.211460647231507926e-01 6.764269023061283637e-29
2.212197968094448131e-01 6.847697974889141774e-29
2.212935534786794056e-01 6.935334649957226328e-29
2.213673347390506529e-01 7.024037820623437446e-29
2.214411405987574410e-01 7.113822528701446093e-29
2.215149710660014593e-01 7.204699166661115353e-29
2.215888261489870892e-01 7.296681430726137790e-29
2.216627058559213492e-01 7.389783220188060193e-29
2.217366101950142554e-01 7.484015107620056733e-29
2.218105391744781829e-01 7.563835700038234603e-29
2.218844928025285601e-01 5.936278140510406788e-29
2.219584710873834243e-01 6.004684436295835950e-29
2.220324740372637273e-01 6.073765287398804061e-29
2.221065016603927245e-01 4.930775872907866122e-29
2.221805539649969741e-01 4.762347955336175666e-29
2.222546309593053104e-01 4.811078851226770347e-29
2.223287326515496209e-01 4.854489153245177723e-29
2.224028590499643465e-01 3.744270783920739556e-29
2.224770101627867591e-01 3.777803188041730398e-29
2.225511859982568508e-01 3.811481491311526451e-29
2.226253865646174723e-01 3.845302204351512459e-29
2.226996118701140004e-01 3.546333851779683506e-29
2.227738619229947814e-01 2.963819637807598039e-29
2.228481367315106876e-01 2.986310492380566974e-29
2.229224363039155887e-01 3.008815718976626247e-29
2.229967606484659637e-01 3.031332447981103553e-29
2.230711097734211501e-01 3.053857798340186990e-29
2.231454836870430392e-01 2.644634130233048297e-29
2.232198823975963531e-01 2.327416886811373909e-29
2.232943059133486452e-01 2.341721841659730025e-29
2.233687542425702999e-01 2.355966251516684846e-29
2.234432273935342272e-01 2.370146332300109109e-29
2.235177253745162795e-01 2.384258775364804274e-29
2.235922481937950568e-01 2.398299420407908305e-29
2.236667958596517958e-01 2.250646355088048422e-29
2.237413683803705922e-01 1.797561125577035133e-29
2.238159657642382616e-01 1.805842842834168270e-29
2.238905880195443676e-01 1.814027104343755941e-29
2.239652351545813047e-01 1.822110974098769083e-29
2.240399071776442985e-01 1.830091311408372805e-29
2.241146040970311837e-01 1.837964462942049463e-29
2.241893259210424594e-01 1.845728085248248011e-29
2.242640726579817612e-01 1.853379859639567716e-29
2.243388443161551671e-01 1.860914993133265528e-29
2.244136409038716973e-01 1.442980664625056505e-29
2.244884624294430642e-01 1.385267804910494054e-29
2.245633089011838113e-01 1.389201661636078344e-29
2.246381803274111189e-01 1.393024046686474452e-29
2.247130767164451093e-01 1.396733007882078629e-29
2.247879980766085972e-01 1.400326106494861964e-29
2.248629444162272006e-01 1.403800791899015213e-29
2.249379157436292576e-01 1.407155140211174309e-29
2.250129120671459648e-01 1.410388380755114219e-29
2.250879333951112116e-01 1.413496851160982316e-29
2.251629797358616902e-01 1.416478170037060420e-29
2.252380510977369521e-01 1.419305893987081101e-29
2.253131474890791575e-01 1.209843124771167394e-29
2.253882689182334642e-01 1.044548036966880162e-29
2.254634153935476393e-01 1.045446697187623950e-29
2.255385869233724194e-01 1.046239458020183449e-29
2.256137835160610117e-01 1.046923905676759521e-29
2.256890051799696761e-01 1.047499310375099147e-29
2.257642519234574763e-01 1.047964551172214942e-29
2.258395237548860568e-01 1.048318313240336792e-29
2.259148206826199490e-01 1.048559605530297109e-29
2.259901427150266262e-01 1.048686063910759164e-29
2.260654898604761431e-01 1.048697740919866674e-29
2.261408621273413300e-01 1.048593446431163467e-29
2.262162595239979868e-01 1.048371863655752560e-29
2.262916820588246058e-01 1.048031889581622201e-29
2.263671297402023996e-01 1.047572731700533925e-29
2.264426025765155503e-01 1.046993021384233096e-29
2.265181005761509325e-01 1.046291454269314320e-29
2.265936237474981685e-01 8.655776051518397108e-30
2.266691720989497116e-01 8.351019868478392331e-30
2.267447456389009020e-01 8.338358360684254323e-30
2.268203443757498550e-01 8.324706266425509381e-30
2.268959683178973508e-01 8.310058933552343614e-30
2.269716174737470005e-01 8.294399643698128758e-30
2.270472918517054128e-01 8.277735185232181166e-30
2.271229914601818334e-01 8.260052483207712436e-30
2.271987163075883942e-01 8.241352609854722884e-30
2.272744664023398364e-01 8.221641086524714616e-30
2.273502417528539543e-01 8.200902237632178306e-30
2.274260423675512066e-01 8.179133354999478247e-30
2.275018682548549664e-01 8.156344478476167697e-30
2.275777194231912992e-01 8.132525008845442654e-30
2.276535958809891014e-01 8.107671770274416391e-30
2.277294976366801560e-01 8.081787187114284350e-30
2.278054246986989662e-01 8.054863193719214463e-30
2.278813770754829215e-01 8.026906783118718711e-30
2.279573547754721874e-01 7.997918559274066330e-30
2.280333578071098155e-01 7.967899182016762961e-30
2.281093861788414112e-01 7.936848730728664029e-30
2.281854398991157440e-01 7.904761866000861785e-30
2.282615189763842478e-01 7.871647797555530717e-30
2.283376234191011045e-01 6.895911513181803855e-30
