# #Wavelength [um]    Spectral Flux [W/m2/um] for R=0.1*Rsol at 10 pc
2.000333353419446181e-01 2.088728993738878289e-28
2.001000282544393716e-01 2.122949523080426160e-28
2.001667434029507087e-01 2.157722516844695734e-28
2.002334807948923656e-01 2.193056707178854130e-28
2.003002404376805767e-01 2.228960928783015897e-28
2.003670223387338523e-01 2.265444378618996622e-28
2.004338265054734780e-01 2.302516153007070093e-28
2.005006529453228215e-01 2.340185586304969510e-28
2.005675016657081089e-01 2.378462278024738717e-28
2.006343726740577593e-01 2.417355641336406392e-28
2.007012659778028563e-01 2.456875621298962072e-28
2.007681815843769535e-01 2.497031878651227801e-28
2.008351195012158252e-01 2.537834897168035706e-28
2.009020797357580213e-01 2.579294603342730260e-28
2.009690622954444505e-01 2.621421570017816095e-28
2.010360671877184646e-01 2.664226189608867524e-28
2.011030944200260517e-01 2.707719269347634178e-28
2.011701439998155039e-01 2.751911699770974262e-28
2.012372159345377221e-01 2.796814531441074200e-28
2.013043102316459942e-01 2.842439011227489569e-28
2.013714268985961897e-01 2.888796408205364841e-28
2.014385659428465647e-01 2.935898518187749230e-28
2.015057273718580122e-01 2.983756922714184160e-28
2.015729111930936457e-01 3.032383524028347904e-28
2.016401174140193819e-01 3.081790639846827264e-28
2.017073460421033582e-01 3.131990397333825159e-28
2.017745970848165427e-01 3.182995351183793612e-28
2.018418705496318466e-01 3.234818189975714219e-28
2.019091664440252343e-01 3.287471888295807941e-28
2.019764847754748904e-01 3.340969451233008267e-28
2.020438255514614978e-01 3.395324306858426460e-28
2.021111887794682371e-01 3.450549602691796045e-28
2.021785744669808427e-01 3.506659353605912869e-28
2.022459826214875744e-01 3.563667475787340080e-28
2.023134132504791072e-01 3.621588037761107089e-28
2.023808663614485859e-01 3.680435246032045888e-28
2.024483419618916535e-01 3.740223512883000783e-28
2.025158400593067010e-01 3.800968115556302333e-28
2.025833606611942284e-01 3.862683874651071673e-28
2.026509037750575115e-01 3.925385984830322232e-28
2.027184694084022409e-01 3.989089945624453234e-28
2.027860575687366329e-01 4.053811574691436630e-28
2.028536682635713739e-01 4.119566728697935889e-28
2.029213015004195930e-01 4.186371701105973701e-28
2.029889572867970560e-01 4.254242803898893295e-28
2.030566356302220266e-01 4.323196861578703900e-28
2.031243365382152388e-01 4.393250942938743647e-28
2.031920600182997860e-01 4.464421962571737662e-28
2.032598060780015370e-01 4.536727820610227091e-28
2.033275747248486920e-01 4.610185717801380925e-28
2.033953659663720048e-01 4.684814196072584048e-28
2.034631798101047551e-01 4.760631590397343399e-28
2.035310162635826925e-01 4.837656130105109670e-28
2.035988753343440927e-01 4.915906792067719767e-28
2.036667570299298957e-01 4.995403057781962804e-28
2.037346613578833732e-01 5.076164159846318416e-28
2.038025883257502113e-01 5.158209574209526136e-28
2.038705379410788443e-01 5.241559558406348068e-28
2.039385102114202319e-01 5.326234640571038224e-28
2.040065051443276378e-01 5.412255574543044557e-28
2.040745227473570733e-01 5.499642959128147345e-28
2.041425630280668535e-01 5.588418357760486524e-28
2.042106259940180135e-01 5.678603108249120213e-28
2.042787116527738922e-01 5.770219610563120876e-28
2.043468200119006872e-01 5.863290154096921518e-28
2.044149510789666779e-01 5.957836970626013330e-28
2.044831048615429747e-01 6.053883189495313182e-28
2.045512813672031860e-01 6.151452509077751445e-28
2.046194806035233626e-01 6.250568065949670600e-28
2.046877025780821091e-01 6.351254031323442308e-28
2.047559472984605278e-01 6.453535241859095154e-28
2.048242147722422746e-01 6.557436479742639516e-28
2.048925050070136422e-01 6.662982324870328191e-28
2.049608180103632826e-01 6.770198585992228328e-28
2.050291537898824290e-01 6.879111210732873035e-28
2.050975123531648958e-01 6.989746828396823808e-28
2.051658937078068567e-01 7.102131875692729238e-28
2.052342978614073443e-01 7.216293244817802514e-28
2.053027248215676392e-01 7.332258835222724820e-28
2.053711745958917423e-01 7.450056438556769866e-28
2.054396471919859579e-01 7.569714720091309040e-28
2.055081426174593107e-01 7.691262199663190748e-28
2.055766608799234618e-01 7.814728096481834186e-28
2.056452019869922931e-01 7.940142309278692685e-28
2.057137659462825452e-01 8.067535344448655901e-28
2.057823527654132068e-01 8.196936995067762558e-28
2.058509624520060421e-01 8.328378400006136409e-28
2.059195950136853137e-01 8.461891674640845087e-28
2.059882504580776430e-01 8.597508751325641818e-28
2.060569287928124271e-01 8.735261886489200893e-28
2.061256300255215612e-01 8.875183886508046817e-28
2.061943541638392718e-01 9.017308448333630769e-28
2.062631012154026722e-01 9.161669313612091531e-28
2.063318711878511513e-01 9.308300924042443298e-28
2.064006640888267352e-01 9.457239326204217095e-28
2.064694799259740032e-01 9.608518936808456758e-28
2.065383187069400606e-01 9.762176221093187318e-28
2.066071804393747324e-01 9.918247793611444150e-28
2.066760651309300367e-01 1.007677064230221928e-27
2.067449727892608502e-01 1.023778285467230222e-27
2.068139034220245753e-01 1.040132237844048110e-27
2.068828570368809461e-01 1.056742833007764129e-27
2.069518336414924720e-01 1.073614002751291718e-27
2.070208332435241882e-01 1.090749730177875420e-27
2.070898558506435450e-01 1.108154189625603010e-27
2.071589014705207121e-01 1.125831359950961035e-27
2.072279701108283301e-01 1.143785513805759099e-27
2.072970617792416481e-01 1.162020912658290838e-27
2.073661764834383581e-01 1.180541757257128822e-27
2.074353142310989551e-01 1.199352540728704836e-27
2.075044750299061269e-01 1.218457693524133962e-27
2.075736588875455313e-01 1.237861714894829853e-27
2.076428658117050741e-01 1.257569217380303646e-27
2.077120958100753256e-01 1.277584728604953230e-27
2.077813488903494654e-01 1.297913064398139100e-27
2.078506250602231986e-01 1.318558965391033123e-27
2.079199243273949227e-01 1.339527329888918082e-27
2.079892466995653943e-01 1.360823092710906986e-27
2.080585921844379516e-01 1.382451260400687143e-27
2.081279607897187078e-01 1.404416892869964618e-27
2.081973525231161637e-01 1.426725100013079780e-27
2.082667673923413176e-01 1.449381228958933410e-27
2.083362054051080270e-01 1.472390420906406500e-27
2.084056665691325916e-01 1.495758214922789957e-27
2.084751508921337260e-01 1.519489929906853128e-27
2.085446583818328925e-01 1.543591308936117765e-27
2.086141890459540238e-01 1.568067811795086137e-27
2.086837428922236892e-01 1.592925292516012046e-27
2.087533199283710950e-01 1.618169474384039363e-27
2.088229201621278897e-01 1.643806230771418115e-27
2.088925436012284420e-01 1.669841626347968078e-27
2.089621902534096187e-01 1.696281543023417390e-27
2.090318601264107845e-01 1.723132338063851731e-27
2.091015532279739131e-01 1.750400128069069792e-27
2.091712695658437537e-01 1.778091310520471317e-27
2.092410091477674705e-01 1.806212254987500171e-27
2.093107719814948364e-01 1.834769620869546190e-27
2.093805580747781780e-01 1.863769888039971881e-27
2.094503674353725420e-01 1.893219809719800995e-27
2.095202000710353341e-01 1.923126179738020463e-27
2.095900559895266801e-01 1.953496060387281314e-27
2.096599351986093152e-01 1.984336254243478544e-27
2.097298377060485552e-01 2.015654021010079043e-27
2.097997635196123811e-01 2.047456575860308619e-27
2.098697126470710494e-01 2.079751298271501816e-27
2.099396850961977035e-01 2.112545644999704749e-27
2.100096808747680677e-01 2.145847019352072681e-27
2.100796999905602536e-01 2.179663199265065038e-27
2.101497424513552592e-01 2.214001998790359494e-27
2.102198082649363864e-01 2.248871200972706118e-27
2.102898974390897679e-01 2.284278930307909289e-27
2.103600099816040347e-01 2.320233279955387728e-27
2.104301459002703434e-01 2.356742466710626282e-27
2.105003052028824040e-01 2.393814755819305626e-27
2.105704878972368133e-01 2.431458953598217584e-27
2.106406939911325826e-01 2.469683415209033627e-27
2.107109234923712215e-01 2.508496883714316384e-27
2.107811764087569872e-01 2.547908384306284331e-27
2.108514527480967737e-01 2.587926701694871775e-27
2.109217525181998620e-01 2.628561275385242064e-27
2.109920757268783642e-01 2.669821121361447840e-27
2.110624223819471124e-01 2.711715650257653104e-27
2.111327924912229648e-01 2.754254367104354415e-27
2.112031860625259994e-01 2.797447284830685941e-27
2.112736031036786255e-01 2.841304009476912832e-27
2.113440436225058616e-01 2.885834318728196857e-27
2.114145076268353352e-01 2.931048499821660795e-27
2.114849951244974768e-01 2.976956750495036523e-27
2.115555061233250489e-01 3.023569623788457941e-27
2.116260406311536724e-01 3.070897493197312963e-27
2.116965986558212720e-01 3.118951139624413745e-27
2.117671802051687147e-01 3.167741619034363310e-27
2.118377852870393374e-01 3.217279559928284196e-27
2.119084139092790309e-01 3.267576468662352200e-27
2.119790660797364057e-01 3.318643695303789321e-27
2.120497418062626260e-01 3.370492610243341099e-27
2.121204410967115483e-01 3.423134874909981177e-27
2.121911639589395826e-01 3.476582537206815579e-27
2.122619104008056923e-01 3.530847296837978729e-27
2.123326804301716719e-01 3.585941548951010818e-27
2.124034740549016753e-01 3.641877831914134018e-27
2.124742912828626595e-01 3.698668414959924199e-27
2.125451321219241629e-01 3.756326188184138115e-27
2.126159965799583329e-01 3.814864052872303880e-27
2.126868846648399536e-01 3.874295062233689281e-27
2.127577963844464737e-01 3.934632869007256066e-27
2.128287317466578121e-01 3.995890306034298295e-27
2.128996907593566912e-01 4.058081336925991639e-27
2.129706734304284144e-01 4.121219907275467062e-27
2.130416797677608942e-01 4.185320297868573324e-27
2.131127097792446523e-01 4.250396535031188209e-27
2.131837634727728747e-01 4.316463072013249806e-27
2.132548408562413289e-01 4.383534672496393906e-27
2.133259419375485300e-01 4.451626571638533275e-27
2.133970667245954633e-01 4.520753499086663462e-27
2.134682152252859177e-01 4.590930906692385133e-27
2.135393874475261800e-01 4.662174102723477901e-27
2.136105833992251735e-01 4.734499335769937399e-27
2.136818030882946251e-01 4.807922242436234000e-27
2.137530465226487597e-01 4.882459447174127119e-27
2.138243137102044944e-01 4.958127070075121847e-27
2.138956046588812998e-01 5.034942123720437622e-27
2.139669193766012834e-01 5.112921480069306047e-27
2.140382578712894945e-01 5.192082335062654571e-27
2.141096201508731200e-01 5.268007627233502874e-27
2.141810062232823719e-01 5.349486594876618016e-27
2.142524160964500157e-01 5.432197822545732408e-27
2.143238497783114260e-01 5.516159575368884320e-27
2.143953072768046697e-01 5.601390052765465834e-27
2.144667885998703394e-01 5.687908345120891157e-27
2.145382937554518032e-01 5.775732629455117933e-27
2.146098227514950108e-01 5.864883081386062896e-27
2.146813755959486869e-01 5.955378558053998278e-27
2.147529522967639715e-01 6.041987937996007293e-27
2.148245528618948630e-01 6.132538571553089188e-27
2.148961772992979413e-01 6.227015443396417102e-27
2.149678256169323953e-01 6.322914318723600321e-27
2.150394978227601894e-01 6.420256123907083059e-27
2.151111939247458416e-01 6.519061337459054143e-27
2.151829139308563954e-01 6.619351776093834314e-27
2.152546578490618367e-01 6.721149547188448107e-27
2.153264256873347049e-01 6.824476461199991818e-27
2.153982174536501759e-01 6.929354142373406635e-27
2.154700331559858406e-01 7.035805614746802360e-27
2.155418728023224262e-01 7.143854623408334474e-27
2.156137364006430468e-01 7.249242267193559291e-27
2.156856239589334256e-01 7.354873951362907172e-27
2.157575354851821448e-01 7.467637734571876373e-27
2.158294709873802009e-01 7.582088968038015970e-27
2.159014304735215051e-01 7.698251014072469645e-27
2.159734139516024387e-01 7.816149540916312216e-27
2.160454214296221587e-01 7.935809957357452589e-27
2.161174529155825697e-01 8.057256861516704956e-27
2.161895084174878801e-01 8.180517401348210685e-27
2.162615879433454069e-01 8.305617271753412878e-27
2.163336915011650208e-01 8.432582217738740729e-27
2.164058190989590347e-01 8.561440384411006964e-27
2.164779707447426205e-01 8.692218606022033778e-27
2.165501464465336701e-01 8.824944705098141094e-27
2.166223462123525456e-01 8.959647295297653210e-27
2.166945700502225791e-01 9.096354352943090914e-27
2.167668179681694340e-01 9.235094692828089818e-27
2.168390899742217715e-01 9.369966356510829231e-27
2.169113860764107504e-01 9.507632480752282984e-27
2.169837062827701113e-01 9.652410098897844724e-27
2.170560506013366198e-01 9.799335172260052562e-27
2.171284190401493175e-01 9.948438397905782860e-27
2.172008116072502437e-01 1.009975213174763999e-26
2.172732283106838802e-01 1.025330682662481735e-26
2.173456691584975120e-01 1.040913523378797075e-26
2.174181341587410610e-01 1.056726939062901221e-26
2.174906233194673355e-01 1.072774297688442919e-26
2.175631366487315033e-01 1.089058962752316045e-26
2.176356741545915907e-01 1.105584252083618942e-26
2.177082358451083166e-01 1.122353593592290701e-26
2.177808217283450920e-01 1.139370527899384093e-26
2.178534318123679092e-01 1.156638515749562175e-26
2.179260661052455916e-01 1.174161219199844090e-26
2.179987246150495994e-01 1.191942195102965343e-26
2.180714073498540018e-01 1.209985191257566740e-26
2.181441143177356989e-01 1.228293854206328395e-26
2.182168455267741725e-01 1.246872011692198343e-26
2.182896009850516517e-01 1.265723508419970721e-26
2.183623807006531414e-01 1.284852190876698886e-26
2.184351846816661447e-01 1.304261992350024159e-26
2.185080129361809675e-01 1.323956872841905049e-26
2.185808654722906363e-01 1.342833281218396242e-26
2.186537422980908973e-01 1.362352463763696273e-26
2.187266434216800781e-01 1.382887346190548156e-26
2.187995688511593373e-01 1.403722790297280478e-26
2.188725185946324148e-01 1.424863274411130060e-26
2.189454926602059093e-01 1.446313038728921315e-26
2.190184910559889175e-01 1.468076293475537873e-26
2.190915137900934506e-01 1.490157503828339501e-26
2.191645608706340176e-01 1.512561236878301595e-26
2.192376323057280141e-01 1.535291897914922878e-26
2.193107281034955280e-01 1.558354193136037445e-26
2.193838482720592009e-01 1.581752609081589053e-26
2.194569928195444219e-01 1.605492017683233044e-26
2.195301617540793837e-01 1.629577055792607559e-26
2.196033550837951098e-01 1.654012609145143000e-26
2.196765728168250387e-01 1.678803548878248530e-26
2.197498149613053564e-01 1.703954865318725073e-26
2.198230815253751358e-01 1.729471684545010347e-26
2.198963725171761974e-01 1.755358790587734673e-26
2.199696879448528597e-01 1.781621693588908916e-26
2.200430278165522724e-01 1.808265378314342863e-26
2.201163921404244161e-01 1.835295135730201563e-26
2.201897809246217141e-01 1.862716571801450537e-26
2.202631941772993929e-01 1.890534821810472348e-26
2.203366319066156487e-01 1.918755420230832843e-26
2.204100941207310926e-01 1.947384131487909614e-26
2.204835808278091391e-01 1.976426559749124090e-26
2.205570920360162002e-01 2.005888072733486839e-26
2.206306277535209359e-01 2.035774694676081489e-26
2.207041879884950875e-01 2.066092391156211423e-26
2.207777727491129216e-01 2.096847016525392276e-26
2.208513820435515085e-01 2.128044527494567284e-26
2.209250158799907215e-01 2.159691039514979079e-26
2.209986742666131265e-01 2.191792680277402741e-26
2.210723572116037872e-01 2.224355623847809529e-26
2.211460647231507926e-01 2.256087182248853886e-26
2.212197968094448131e-01 2.287494197590139752e-26
2.212935534786794056e-01 2.321408595525415898e-26
2.213673347390506529e-01 2.355808275507965956e-26
2.214411405987574410e-01 2.390700181802836522e-26
2.215149710660014593e-01 2.426090902231768373e-26
2.215888261489870892e-01 2.461987168069486457e-26
2.216627058559213492e-01 2.498395965696047736e-26
2.217366101950142554e-01 2.535324120726518331e-26
2.218105391744781829e-01 2.571099344289117669e-26
2.218844928025285601e-01 2.277064232176853924e-26
2.219584710873834243e-01 2.308532346205171368e-26
2.220324740372637273e-01 2.340395216841030235e-26
2.221065016603927245e-01 2.073651918696322531e-26
2.221805539649969741e-01 2.032765619461786360e-26
2.222546309593053104e-01 2.058520756357193676e-26
2.223287326515496209e-01 2.083119381098528143e-26
2.224028590499643465e-01 1.772948439774130589e-26
2.224770101627867591e-01 1.793472199127848057e-26
2.225511859982568508e-01 1.814164826036866778e-26
2.226253865646174723e-01 1.835025564180458046e-26
2.226996118701140004e-01 1.755548096208891752e-26
2.227738619229947814e-01 1.565323408406257796e-26
2.228481367315106876e-01 1.581581422591745855e-26
2.229224363039155887e-01 1.597930785279815498e-26
2.229967606484659637e-01 1.614370227622298893e-26
2.230711097734211501e-01 1.630898740212409622e-26
2.231454836870430392e-01 1.493728148169859363e-26
2.232198823975963531e-01 1.375057493860903090e-26
2.232943059133486452e-01 1.387576819093051638e-26
2.233687542425702999e-01 1.400127307235585485e-26
2.234432273935342272e-01 1.412706841817897724e-26
2.235177253745162795e-01 1.425313089669670575e-26
2.235922481937950568e-01 1.437943889391032183e-26
2.236667958596517958e-01 1.386061685624244582e-26
2.237413683803705922e-01 1.192575978128664918e-26
2.238159657642382616e-01 1.201755733352500241e-26
2.238905880195443676e-01 1.210920535756608215e-26
2.239652351545813047e-01 1.220068003873410889e-26
2.240399071776442985e-01 1.229195653407538957e-26
2.241146040970311837e-01 1.238300665183126775e-26
2.241893259210424594e-01 1.247380717207632055e-26
2.242640726579817612e-01 1.256433773644662399e-26
2.243388443161551671e-01 1.265456214786758896e-26
2.244136409038716973e-01 1.064500066653080336e-26
2.244884624294430642e-01 1.037639376988705619e-26
2.245633089011838113e-01 1.043887527231215725e-26
2.246381803274111189e-01 1.050084319194035471e-26
2.247130767164451093e-01 1.056227345447734904e-26
2.247879980766085972e-01 1.062314194972646811e-26
2.248629444162272006e-01 1.068342159143581285e-26
2.249379157436292576e-01 1.074309011011596653e-26
2.250129120671459648e-01 1.080212681929343577e-26
2.250879333951112116e-01 1.086050205639936635e-26
2.251629797358616902e-01 1.091818606633236211e-26
2.252380510977369521e-01 1.097444823990571796e-26
2.253131474890791575e-01 9.827649296686634869e-27
2.253882689182334642e-01 8.852689941159229860e-27
2.254634153935476393e-01 8.888679460001011442e-27
2.255385869233724194e-01 8.923916028303036425e-27
2.256137835160610117e-01 8.958370422327177398e-27
2.256890051799696761e-01 8.992026777836003976e-27
2.257642519234574763e-01 9.024863962425192422e-27
2.258395237548860568e-01 9.056860780726833363e-27
2.259148206826199490e-01 9.087997381488029424e-27
2.259901427150266262e-01 9.118247616835427994e-27
2.260654898604761431e-01 9.147594277199601354e-27
2.261408621273413300e-01 9.176016757873606604e-27
2.262162595239979868e-01 9.203493246332524888e-27
2.262916820588246058e-01 9.230003214067568698e-27
2.263671297402023996e-01 9.255523982009590458e-27
2.264426025765155503e-01 9.280036086225643001e-27
2.265181005761509325e-01 9.303513041482097144e-27
2.265936237474981685e-01 8.103294749585359407e-27
2.266691720989497116e-01 7.908004738988165434e-27
2.267447456389009020e-01 7.920861946048580800e-27
2.268203443757498550e-01 7.932753371862121820e-27
2.268959683178973508e-01 7.943659831307619887e-27
2.269716174737470005e-01 7.953559877610601498e-27
2.270472918517054128e-01 7.962441455157826888e-27
2.271229914601818334e-01 7.970285738828845658e-27
2.271987163075883942e-01 7.977081173316045532e-27
2.272744664023398364e-01 7.982814112483875307e-27
2.273502417528539543e-01 7.987462543741289534e-27
2.274260423675512066e-01 7.991011553588840585e-27
2.275018682548549664e-01 7.993453622678702045e-27
2.275777194231912992e-01 7.994770305222533751e-27
2.276535958809891014e-01 7.994942100185578323e-27
2.277294976366801560e-01 7.993959437094773811e-27
2.278054246986989662e-01 7.991803742841066830e-27
2.278813770754829215e-01 7.988465971064844373e-27
2.279573547754721874e-01 7.983931643660097798e-27
2.280333578071098155e-01 7.978188377584572079e-27
2.281093861788414112e-01 7.971223181883440688e-27
2.281854398991157440e-01 7.963019120820903331e-27
2.282615189763842478e-01 7.953567669437111558e-27
2.283376234191011045e-01 7.200135066036750729e-27
