# #Wavelength [um]    Spectral Flux [W/m2/um] for R=0.1*Rsol at 10 pc
2.000333353419446181e-01 1.051190212549864623e-32
2.001000282544393716e-01 1.072216200013554368e-32
2.001667434029507087e-01 1.093659309199355856e-32
2.002334807948923656e-01 1.115527744885719765e-32
2.003002404376805767e-01 1.137829875789869385e-32
2.003670223387338523e-01 1.160574231971608117e-32
2.004338265054734780e-01 1.183769507775697699e-32
2.005006529453228215e-01 1.207424571204387427e-32
2.005675016657081089e-01 1.231548461128911360e-32
2.006343726740577593e-01 1.256150392628844226e-32
2.007012659778028563e-01 1.281239760394242257e-32
2.007681815843769535e-01 1.306826139903767632e-32
2.008351195012158252e-01 1.332919297749937392e-32
2.009020797357580213e-01 1.359529188553070792e-32
2.009690622954444505e-01 1.386665958386640239e-32
2.010360671877184646e-01 1.414339958248163618e-32
2.011030944200260517e-01 1.442561730821061074e-32
2.011701439998155039e-01 1.471342028926108845e-32
2.012372159345377221e-01 1.500691819974231816e-32
2.013043102316459942e-01 1.530622274361929177e-32
2.013714268985961897e-01 1.561144787780784014e-32
2.014385659428465647e-01 1.592270974999640105e-32
2.015057273718580122e-01 1.624012673862355357e-32
2.015729111930936457e-01 1.656381961048017065e-32
2.016401174140193819e-01 1.689391136510825231e-32
2.017073460421033582e-01 1.723052748126322364e-32
2.017745970848165427e-01 1.757379581667215039e-32
2.018418705496318466e-01 1.792384677581438987e-32
2.019091664440252343e-01 1.828081326698947895e-32
2.019764847754748904e-01 1.864483078094835626e-32
2.020438255514614978e-01 1.901603744066490000e-32
2.021111887794682371e-01 1.939457401774110422e-32
2.021785744669808427e-01 1.978058408568901179e-32
2.022459826214875744e-01 2.017421397227721184e-32
2.023134132504791072e-01 2.057561280961107379e-32
2.023808663614485859e-01 2.098493269704744678e-32
2.024483419618916535e-01 2.140232865007268069e-32
2.025158400593067010e-01 2.182795869239644565e-32
2.025833606611942284e-01 2.226198391357808692e-32
2.026509037750575115e-01 2.270456848776495488e-32
2.027184694084022409e-01 2.315587985330872659e-32
2.027860575687366329e-01 2.361608865602123397e-32
2.028536682635713739e-01 2.408536880747507858e-32
2.029213015004195930e-01 2.456389771942382475e-32
2.029889572867970560e-01 2.505185606903763716e-32
2.030566356302220266e-01 2.554942812064301210e-32
2.031243365382152388e-01 2.605680180185399836e-32
2.031920600182997860e-01 2.657416849700701231e-32
2.032598060780015370e-01 2.710172343695768890e-32
2.033275747248486920e-01 2.763966558717560574e-32
2.033953659663720048e-01 2.818819771535643043e-32
2.034631798101047551e-01 2.874752666611996928e-32
2.035310162635826925e-01 2.931786308434359526e-32
2.035988753343440927e-01 2.989942184606803424e-32
2.036667570299298957e-01 3.049242187931927484e-32
2.037346613578833732e-01 3.109708645591020391e-32
2.038025883257502113e-01 3.171364311332193393e-32
2.038705379410788443e-01 3.234232378991670652e-32
2.039385102114202319e-01 3.298336490927224346e-32
2.040065051443276378e-01 3.363700740588330117e-32
2.040745227473570733e-01 3.430349699140057326e-32
2.041425630280668535e-01 3.498308406750109401e-32
2.042106259940180135e-01 3.567602387504436821e-32
2.042787116527738922e-01 3.638257652126016692e-32
2.043468200119006872e-01 3.710300726786333570e-32
2.044149510789666779e-01 3.783758643612166425e-32
2.044831048615429747e-01 3.858658949860535595e-32
2.045512813672031860e-01 3.935029745530194007e-32
2.046194806035233626e-01 4.012899645056434649e-32
2.046877025780821091e-01 4.092297836489679076e-32
2.047559472984605278e-01 4.173254056571426238e-32
2.048242147722422746e-01 4.255798630767523536e-32
2.048925050070136422e-01 4.339962470083266663e-32
2.049608180103632826e-01 4.425777050303025462e-32
2.050291537898824290e-01 4.513274501758028408e-32
2.050975123531648958e-01 4.602487534256821256e-32
2.051658937078068567e-01 4.693449512699067788e-32
2.052342978614073443e-01 4.786194437062710929e-32
2.053027248215676392e-01 4.880756962593313385e-32
2.053711745958917423e-01 4.977172403388978707e-32
2.054396471919859579e-01 5.075476771806837959e-32
2.055081426174593107e-01 5.175706765136195552e-32
2.055766608799234618e-01 5.277899787494333924e-32
2.056452019869922931e-01 5.382093953551046077e-32
2.057137659462825452e-01 5.488328131220847483e-32
2.057823527654132068e-01 5.596641927090310645e-32
2.058509624520060421e-01 5.707075710133957786e-32
2.059195950136853137e-01 5.819670615646848441e-32
2.059882504580776430e-01 5.934468602174174247e-32
2.060569287928124271e-01 6.051512381748669155e-32
2.061256300255215612e-01 6.170845553394179605e-32
2.061943541638392718e-01 6.292512510804691796e-32
2.062631012154026722e-01 6.416558500667263821e-32
2.063318711878511513e-01 6.543029662693355704e-32
2.064006640888267352e-01 6.671972999934469361e-32
2.064694799259740032e-01 6.803436455258081263e-32
2.065383187069400606e-01 6.937468843693109127e-32
2.066071804393747324e-01 7.074119955372864945e-32
2.066760651309300367e-01 7.213440524463614186e-32
2.067449727892608502e-01 7.355482246129552204e-32
2.068139034220245753e-01 7.500297834849901273e-32
2.068828570368809461e-01 7.647941004046595949e-32
2.069518336414924720e-01 7.798466498279035371e-32
2.070208332435241882e-01 7.951930112852771249e-32
2.070898558506435450e-01 8.108388698945015357e-32
2.071589014705207121e-01 8.267900227940499588e-32
2.072279701108283301e-01 8.430523768814199065e-32
2.072970617792416481e-01 8.596319507697428319e-32
2.073661764834383581e-01 8.765348816180708320e-32
2.074353142310989551e-01 8.937674227166835473e-32
2.075044750299061269e-01 9.113359472339212683e-32
2.075736588875455313e-01 9.292469505026144506e-32
2.076428658117050741e-01 9.475070505861196185e-32
2.077120958100753256e-01 9.661229958086388386e-32
2.077813488903494654e-01 9.851016620763479208e-32
2.078506250602231986e-01 1.004450056993742844e-31
2.079199243273949227e-01 1.024175320488809468e-31
2.079892466995653943e-01 1.044284732939900070e-31
2.080585921844379516e-01 1.064785712260855730e-31
2.081279607897187078e-01 1.085685816353026853e-31
2.081973525231161637e-01 1.106992753769988030e-31
2.082667673923413176e-01 1.128714372485211031e-31
2.083362054051080270e-01 1.150858676742400546e-31
2.084056665691325916e-01 1.173433819686176571e-31
2.084751508921337260e-01 1.196448116893771051e-31
2.085446583818328925e-01 1.219910034207337867e-31
2.086141890459540238e-01 1.243828205944819326e-31
2.086837428922236892e-01 1.268211426930479133e-31
2.087533199283710950e-01 1.293068667111118867e-31
2.088229201621278897e-01 1.318409058364245483e-31
2.088925436012284420e-01 1.344241914220942790e-31
2.089621902534096187e-01 1.370576723727541554e-31
2.090318601264107845e-01 1.397423154577301948e-31
2.091015532279739131e-01 1.424791064206166304e-31
2.091712695658437537e-01 1.452690495722396071e-31
2.092410091477674705e-01 1.481131683947291428e-31
2.093107719814948364e-01 1.510125059051841056e-31
2.093805580747781780e-01 1.539681247375975524e-31
2.094503674353725420e-01 1.569811083683176779e-31
2.095202000710353341e-01 1.600525606614789201e-31
2.095900559895266801e-01 1.631836062316066585e-31
2.096599351986093152e-01 1.663753917411864201e-31
2.097298377060485552e-01 1.696290854178803445e-31
2.097997635196123811e-01 1.729458777598955070e-31
2.098697126470710494e-01 1.763269819561120280e-31
2.099396850961977035e-01 1.797736339796479913e-31
2.100096808747680677e-01 1.832870940175167725e-31
2.100796999905602536e-01 1.868686459339674320e-31
2.101497424513552592e-01 1.905195980471114074e-31
2.102198082649363864e-01 1.942412832281828779e-31
2.102898974390897679e-01 1.980350604443820795e-31
2.103600099816040347e-01 2.019023141788677114e-31
2.104301459002703434e-01 2.058444552651527061e-31
2.105003052028824040e-01 2.098629209939617981e-31
2.105704878972368133e-01 2.139591767815866470e-31
2.106406939911325826e-01 2.181347155352268593e-31
2.107109234923712215e-01 2.223910585604608459e-31
2.107811764087569872e-01 2.267297556670701739e-31
2.108514527480967737e-01 2.311523874089558262e-31
2.109217525181998620e-01 2.356605622271065634e-31
2.109920757268783642e-01 2.402559217625164291e-31
2.110624223819471124e-01 2.449401370936668871e-31
2.111327924912229648e-01 2.497149110242489473e-31
2.112031860625259994e-01 2.545819796340565905e-31
2.112736031036786255e-01 2.595431115203260132e-31
2.113440436225058616e-01 2.646001083678905164e-31
2.114145076268353352e-01 2.697548075659395098e-31
2.114849951244974768e-01 2.750090793719049314e-31
2.115555061233250489e-01 2.803648305381893920e-31
2.116260406311536724e-01 2.858240050804184673e-31
2.116965986558212720e-01 2.913885817640444038e-31
2.117671802051687147e-01 2.970605785105389134e-31
2.118377852870393374e-01 3.028420509783874635e-31
2.119084139092790309e-01 3.087350938091068375e-31
2.119790660797364057e-01 3.147418407660105101e-31
2.120497418062626260e-01 3.208644672409592843e-31
2.121204410967115483e-01 3.271051892745900019e-31
2.121911639589395826e-01 3.334662649047692034e-31
2.122619104008056923e-01 3.399499943096495422e-31
2.123326804301716719e-01 3.465587231719915228e-31
2.124034740549016753e-01 3.532948390045574111e-31
2.124742912828626595e-01 3.601607758199552261e-31
2.125451321219241629e-01 3.671590151078221382e-31
2.126159965799583329e-01 3.742920825767750609e-31
2.126868846648399536e-01 3.815625538289827516e-31
2.127577963844464737e-01 3.889730525115654768e-31
2.128287317466578121e-01 3.965262511599404814e-31
2.128996907593566912e-01 4.042248751263031156e-31
2.129706734304284144e-01 4.120716982669098882e-31
2.130416797677608942e-01 4.200695483983925066e-31
2.131127097792446523e-01 4.282213084346430571e-31
2.131837634727728747e-01 4.365299125573377665e-31
2.132548408562413289e-01 4.449983537013389265e-31
2.133259419375485300e-01 4.536296771334261489e-31
2.133970667245954633e-01 4.624269907952248043e-31
2.134682152252859177e-01 4.713934569990713855e-31
2.135393874475261800e-01 4.805323013457520439e-31
2.136105833992251735e-01 4.898468067158746413e-31
2.136818030882946251e-01 4.993403197663027065e-31
2.137530465226487597e-01 5.090162522744434728e-31
2.138243137102044944e-01 5.188780765572541348e-31
2.138956046588812998e-01 5.289293333736703711e-31
2.139669193766012834e-01 5.391736293100942347e-31
2.140382578712894945e-01 5.496146379360642649e-31
2.141096201508731200e-01 5.601786079364309819e-31
2.141810062232823719e-01 5.710222532174235410e-31
2.142524160964500157e-01 5.820739984491159782e-31
2.143238497783114260e-01 5.933378016163759480e-31
2.143953072768046697e-01 6.048176941301496934e-31
2.144667885998703394e-01 6.165177856172018791e-31
2.145382937554518032e-01 6.284422619599465434e-31
2.146098227514950108e-01 6.405953879118845029e-31
2.146813755959486869e-01 6.529815072016867223e-31
2.147529522967639715e-01 6.655064269913222336e-31
2.148245528618948630e-01 6.783246411681021776e-31
2.148961772992979413e-01 6.914327062928935876e-31
2.149678256169323953e-01 7.047918680398299370e-31
2.150394978227601894e-01 7.184068952966705366e-31
2.151111939247458416e-01 7.322826412168730161e-31
2.151829139308563954e-01 7.464240528465248970e-31
2.152546578490618367e-01 7.608361731766029093e-31
2.153264256873347049e-01 7.755241341576930884e-31
2.153982174536501759e-01 7.904931682548142365e-31
2.154700331559858406e-01 8.057486050248109707e-31
2.155418728023224262e-01 8.212958742113044260e-31
2.156137364006430468e-01 8.370569994887589142e-31
2.156856239589334256e-01 8.530938560631248951e-31
2.157575354851821448e-01 8.695450024595001156e-31
2.158294709873802009e-01 8.863105904215298468e-31
2.159014304735215051e-01 9.033965773501606473e-31
2.159734139516024387e-01 9.208090256272138150e-31
2.160454214296221587e-01 9.385541165331228979e-31
2.161174529155825697e-01 9.566381452833040200e-31
2.161895084174878801e-01 9.750675234620515660e-31
2.162615879433454069e-01 9.938487861925492461e-31
2.163336915011650208e-01 1.012988588849417068e-30
2.164058190989590347e-01 1.032493711908711997e-30
2.164779707447426205e-01 1.052371062676902195e-30
2.165501464465336701e-01 1.072627675409881058e-30
2.166223462123525456e-01 1.093270720483668669e-30
2.166945700502225791e-01 1.114307499888304328e-30
2.167668179681694340e-01 1.135745452255545862e-30
2.168390899742217715e-01 1.157466682493811634e-30
2.169113860764107504e-01 1.179618013325371527e-30
2.169837062827701113e-01 1.202299160445429032e-30
2.170560506013366198e-01 1.225412475753532138e-30
2.171284190401493175e-01 1.248966112183633002e-30
2.172008116072502437e-01 1.272968379936554764e-30
2.172732283106838802e-01 1.297427741108774248e-30
2.173456691584975120e-01 1.322352816425851304e-30
2.174181341587410610e-01 1.347752384238293718e-30
2.174906233194673355e-01 1.373635395250294628e-30
2.175631366487315033e-01 1.400010956169345784e-30
2.176356741545915907e-01 1.426888351265785280e-30
2.177082358451083166e-01 1.454277032436495619e-30
2.177808217283450920e-01 1.482186636166833051e-30
2.178534318123679092e-01 1.510626967395910994e-30
2.179260661052455916e-01 1.539608022338739752e-30
2.179987246150495994e-01 1.569139976820625245e-30
2.180714073498540018e-01 1.599233205872116776e-30
2.181441143177356989e-01 1.629898264587420832e-30
2.182168455267741725e-01 1.661145914728987789e-30
2.182896009850516517e-01 1.692987115084240064e-30
2.183623807006531414e-01 1.725433023929815195e-30
2.184351846816661447e-01 1.758495014164545988e-30
2.185080129361809675e-01 1.792184667111343646e-30
2.185808654722906363e-01 1.826248565760173098e-30
2.186537422980908973e-01 1.861045170785901521e-30
2.187266434216800781e-01 1.896677491377392456e-30
2.187995688511593373e-01 1.932985659338755949e-30
2.188725185946324148e-01 1.969982364291528652e-30
2.189454926602059093e-01 2.007680529427578918e-30
2.190184910559889175e-01 2.046093311753139769e-30
2.190915137900934506e-01 2.085234123353457745e-30
2.191645608706340176e-01 2.125116620300495763e-30
2.192376323057280141e-01 2.165754710397294209e-30
2.193107281034955280e-01 2.207162559628983994e-30
2.193838482720592009e-01 2.249354592478191515e-30
2.194569928195444219e-01 2.292345508206285148e-30
2.195301617540793837e-01 2.336150274939911152e-30
2.196033550837951098e-01 2.380784132460846479e-30
2.196765728168250387e-01 2.426262616719979906e-30
2.197498149613053564e-01 2.472601532936834496e-30
2.198230815253751358e-01 2.519816990924485094e-30
2.198963725171761974e-01 2.567925388205482695e-30
2.199696879448528597e-01 2.616943443524447765e-30
2.200430278165522724e-01 2.666888161175349759e-30
2.201163921404244161e-01 2.717776875400585381e-30
2.201897809246217141e-01 2.769627237368528381e-30
2.202631941772993929e-01 2.822457213149608261e-30
2.203366319066156487e-01 2.876285116292093189e-30
2.204100941207310926e-01 2.931129592235616032e-30
2.204835808278091391e-01 2.987009627735725243e-30
2.205570920360162002e-01 3.043944558036563468e-30
2.206306277535209359e-01 3.101954072101513248e-30
2.207041879884950875e-01 3.161058234768376633e-30
2.207777727491129216e-01 3.221277469764108990e-30
2.208513820435515085e-01 3.282632577896694960e-30
2.209250158799907215e-01 3.345144736975057599e-30
2.209986742666131265e-01 3.408835532898127029e-30
2.210723572116037872e-01 3.473726923244661414e-30
2.211460647231507926e-01 3.539466603382996802e-30
2.212197968094448131e-01 3.606215958753971634e-30
2.212935534786794056e-01 3.674818970177944584e-30
2.213673347390506529e-01 3.744713854787577581e-30
2.214411405987574410e-01 3.815924655903002353e-30
2.215149710660014593e-01 3.888475855532528721e-30
2.215888261489870892e-01 3.962392376573085360e-30
2.216627058559213492e-01 4.037699616735279372e-30
2.217366101950142554e-01 4.114423422736276620e-30
2.218105391744781829e-01 4.192547096246586154e-30
2.218844928025285601e-01 4.133214444847476006e-30
2.219584710873834243e-01 4.210691380975302928e-30
2.220324740372637273e-01 4.289593875936022756e-30
2.221065016603927245e-01 4.249067504010130717e-30
2.221805539649969741e-01 4.294447117664206826e-30
2.222546309593053104e-01 4.373696882713761270e-30
2.223287326515496209e-01 4.453753704691905408e-30
2.224028590499643465e-01 4.364730703152736457e-30
2.224770101627867591e-01 4.443930664932215029e-30
2.225511859982568508e-01 4.524511664873109694e-30
2.226253865646174723e-01 4.606495969498385886e-30
2.226996118701140004e-01 4.632507195746680367e-30
2.227738619229947814e-01 4.577810367457417852e-30
2.228481367315106876e-01 4.659201332910247075e-30
2.229224363039155887e-01 4.741962554273913430e-30
2.229967606484659637e-01 4.826114938672449065e-30
2.230711097734211501e-01 4.911679604327539001e-30
2.231454836870430392e-01 4.883599571489433964e-30
2.232198823975963531e-01 4.855857873926098563e-30
2.232943059133486452e-01 4.940109575734979596e-30
2.233687542425702999e-01 5.025719525937141709e-30
2.234432273935342272e-01 5.112706446561942918e-30
2.235177253745162795e-01 5.201089189907452794e-30
2.235922481937950568e-01 5.290886691947412349e-30
2.236667958596517958e-01 5.321541715266623842e-30
2.237413683803705922e-01 5.193856394241214690e-30
2.238159657642382616e-01 5.281302627438132319e-30
2.238905880195443676e-01 5.370081778066696433e-30
2.239652351545813047e-01 5.460209999088046729e-30
2.240399071776442985e-01 5.551703026800576807e-30
2.241146040970311837e-01 5.644576668138175085e-30
2.241893259210424594e-01 5.738847172279642497e-30
2.242640726579817612e-01 5.834531252334671851e-30
2.243388443161551671e-01 5.931643910134422814e-30
2.244136409038716973e-01 5.741608689955298672e-30
2.244884624294430642e-01 5.782880788776007470e-30
2.245633089011838113e-01 5.876374585902901776e-30
2.246381803274111189e-01 5.971182235508561537e-30
2.247130767164451093e-01 6.067316077023241222e-30
2.247879980766085972e-01 6.164788088291246601e-30
2.248629444162272006e-01 6.263609618072938456e-30
2.249379157436292576e-01 6.363793006255726666e-30
2.250129120671459648e-01 6.465350677551905829e-30
2.250879333951112116e-01 6.568293508226385905e-30
2.251629797358616902e-01 6.672632074428482211e-30
2.252380510977369521e-01 6.778232469323617454e-30
2.253131474890791575e-01 6.658792779281746032e-30
2.253882689182334642e-01 6.545475949209241095e-30
2.254634153935476393e-01 6.645677509160291076e-30
2.255385869233724194e-01 6.747126781242040488e-30
2.256137835160610117e-01 6.849828571446827631e-30
2.256890051799696761e-01 6.953789458602407480e-30
2.257642519234574763e-01 7.059015499450876154e-30
2.258395237548860568e-01 7.165511668913678814e-30
2.259148206826199490e-01 7.273282985055824500e-30
2.259901427150266262e-01 7.382333168145926106e-30
2.260654898604761431e-01 7.492666937399074624e-30
2.261408621273413300e-01 7.604288498287238706e-30
2.262162595239979868e-01 7.717200581785059909e-30
2.262916820588246058e-01 7.831406230948795529e-30
2.263671297402023996e-01 7.946907653554189120e-30
2.264426025765155503e-01 8.063706633036682903e-30
2.265181005761509325e-01 8.181802978451867304e-30
2.265936237474981685e-01 7.939501853289656058e-30
2.266691720989497116e-01 7.984727354705958653e-30
2.267447456389009020e-01 8.097830724573958803e-30
2.268203443757498550e-01 8.212072856299993949e-30
2.268959683178973508e-01 8.327449408294151094e-30
2.269716174737470005e-01 8.443953923707264466e-30
2.270472918517054128e-01 8.561582692575832241e-30
2.271229914601818334e-01 8.680328086884924958e-30
2.271987163075883942e-01 8.800185472521544712e-30
2.272744664023398364e-01 8.921148226444981534e-30
2.273502417528539543e-01 9.043205012612602680e-30
2.274260423675512066e-01 9.166347131915361100e-30
2.275018682548549664e-01 9.290567213170214239e-30
2.275777194231912992e-01 9.415853002646697946e-30
2.276535958809891014e-01 9.542191115724665607e-30
2.277294976366801560e-01 9.669570083697247593e-30
2.278054246986989662e-01 9.797974353000659952e-30
2.278813770754829215e-01 9.927390928426360546e-30
2.279573547754721874e-01 1.005780390379805074e-29
2.280333578071098155e-01 1.018919646481540646e-29
2.281093861788414112e-01 1.032154977845236267e-29
2.281854398991157440e-01 1.045484324117449272e-29
2.282615189763842478e-01 1.058905783180337418e-29
2.283376234191011045e-01 1.036558730137517239e-29
