# #Wavelength [um]    Spectral Flux [W/m2/um] for R=0.1*Rsol at 10 pc
2.000333353419446181e-01 6.392570450943942900e-31
2.001000282544393716e-01 6.517305816483686639e-31
2.001667434029507087e-01 6.644453043811680916e-31
2.002334807948923656e-01 6.774058318249991323e-31
2.003002404376805767e-01 6.906168725218983888e-31
2.003670223387338523e-01 7.040832231086342100e-31
2.004338265054734780e-01 7.178097698654898054e-31
2.005006529453228215e-01 7.318014942605653407e-31
2.005675016657081089e-01 7.460634708949299852e-31
2.006343726740577593e-01 7.606008705274146801e-31
2.007012659778028563e-01 7.754189618800125878e-31
2.007681815843769535e-01 7.905231120396629780e-31
2.008351195012158252e-01 8.059187925457124614e-31
2.009020797357580213e-01 8.216115771443676566e-31
2.009690622954444505e-01 8.376071435857930331e-31
2.010360671877184646e-01 8.539112815910988302e-31
2.011030944200260517e-01 8.705298843573439644e-31
2.011701439998155039e-01 8.874689595832538007e-31
2.012372159345377221e-01 9.047346318640630507e-31
2.013043102316459942e-01 9.223331348958032225e-31
2.013714268985961897e-01 9.402708254122004353e-31
2.014385659428465647e-01 9.585541789058243969e-31
2.015057273718580122e-01 9.771897912574588778e-31
2.015729111930936457e-01 9.961843882725897151e-31
2.016401174140193819e-01 1.015544815724491536e-30
2.017073460421033582e-01 1.035278054071755492e-30
2.017745970848165427e-01 1.055391211906469242e-30
2.018418705496318466e-01 1.075891535820712499e-30
2.019091664440252343e-01 1.096786407348915368e-30
2.019764847754748904e-01 1.118083347334496172e-30
2.020438255514614978e-01 1.139790018553108457e-30
2.021111887794682371e-01 1.161914226252097293e-30
2.021785744669808427e-01 1.184463927077685362e-30
2.022459826214875744e-01 1.207447225679579659e-30
2.023134132504791072e-01 1.230872377276200201e-30
2.023808663614485859e-01 1.254747797160825708e-30
2.024483419618916535e-01 1.279082057036736223e-30
2.025158400593067010e-01 1.303883890166916650e-30
2.025833606611942284e-01 1.329162194317013522e-30
2.026509037750575115e-01 1.354926032376517116e-30
2.027184694084022409e-01 1.381184642748186559e-30
2.027860575687366329e-01 1.407947435629763727e-30
2.028536682635713739e-01 1.435223995605316375e-30
2.029213015004195930e-01 1.463024095512330444e-30
2.029889572867970560e-01 1.491357681552344250e-30
2.030566356302220266e-01 1.520234892271099680e-30
2.031243365382152388e-01 1.549666062589797259e-30
2.031920600182997860e-01 1.579661710607064836e-30
2.032598060780015370e-01 1.610232560692801185e-30
2.033275747248486920e-01 1.641389535987336414e-30
2.033953659663720048e-01 1.673143761898945589e-30
2.034631798101047551e-01 1.705506582091051492e-30
2.035310162635826925e-01 1.738489540997468385e-30
2.035988753343440927e-01 1.772104409277147657e-30
2.036667570299298957e-01 1.806363172220929449e-30
2.037346613578833732e-01 1.841278046725159160e-30
2.038025883257502113e-01 1.876861475806377129e-30
2.038705379410788443e-01 1.913126136028586200e-30
2.039385102114202319e-01 1.950084941842565450e-30
2.040065051443276378e-01 1.987751046401088528e-30
2.040745227473570733e-01 2.026137856736026489e-30
2.041425630280668535e-01 2.065259027805625614e-30
2.042106259940180135e-01 2.105128470619916235e-30
2.042787116527738922e-01 2.145760352956831600e-30
2.043468200119006872e-01 2.187169115873248405e-30
2.044149510789666779e-01 2.229369467509299077e-30
2.044831048615429747e-01 2.272376387217510341e-30
2.045512813672031860e-01 2.316205147449855949e-30
2.046194806035233626e-01 2.360871289858572835e-30
2.046877025780821091e-01 2.406390659850370762e-30
2.047559472984605278e-01 2.452779390710654695e-30
2.048242147722422746e-01 2.500053926600256662e-30
2.048925050070136422e-01 2.548231019709704763e-30
2.049608180103632826e-01 2.597327716758336039e-30
2.050291537898824290e-01 2.647361411773670644e-30
2.050975123531648958e-01 2.698349800050086048e-30
2.051658937078068567e-01 2.750310922389052515e-30
2.052342978614073443e-01 2.803263151981410721e-30
2.053027248215676392e-01 2.857225205374484245e-30
2.053711745958917423e-01 2.912216143531255917e-30
2.054396471919859579e-01 2.968255394140201752e-30
2.055081426174593107e-01 3.025362742487061088e-30
2.055766608799234618e-01 3.083558343383175720e-30
2.056452019869922931e-01 3.142862722091397158e-30
2.057137659462825452e-01 3.203296798586590374e-30
2.057823527654132068e-01 3.264881877527663487e-30
2.058509624520060421e-01 3.327639661138798255e-30
2.059195950136853137e-01 3.391592250190581453e-30
2.059882504580776430e-01 3.456762176581475659e-30
2.060569287928124271e-01 3.523172360421611850e-30
2.061256300255215612e-01 3.590846187958492528e-30
2.061943541638392718e-01 3.659807455367907342e-30
2.062631012154026722e-01 3.730080401926142952e-30
2.063318711878511513e-01 3.801689732215171499e-30
2.064006640888267352e-01 3.874660597085311710e-30
2.064694799259740032e-01 3.949018637367829264e-30
2.065383187069400606e-01 4.024789942283369810e-30
2.066071804393747324e-01 4.102001108780897426e-30
2.066760651309300367e-01 4.180679221484045808e-30
2.067449727892608502e-01 4.260851860029037992e-30
2.068139034220245753e-01 4.342547129910398863e-30
2.068828570368809461e-01 4.425793660748838145e-30
2.069518336414924720e-01 4.510620609525656049e-30
2.070208332435241882e-01 4.597057675390174469e-30
2.070898558506435450e-01 4.685135100907762814e-30
2.071589014705207121e-01 4.774883707939968184e-30
2.072279701108283301e-01 4.866334882509638562e-30
2.072970617792416481e-01 4.959520584511327721e-30
2.073661764834383581e-01 5.054473385757310841e-30
2.074353142310989551e-01 5.151226453921858425e-30
2.075044750299061269e-01 5.249813572319089261e-30
2.075736588875455313e-01 5.350269151511427791e-30
2.076428658117050741e-01 5.452628230376859648e-30
2.077120958100753256e-01 5.556926518154218754e-30
2.077813488903494654e-01 5.663200376446278910e-30
2.078506250602231986e-01 5.771486797834802081e-30
2.079199243273949227e-01 5.881823505248085262e-30
2.079892466995653943e-01 5.994248960192121100e-30
2.080585921844379516e-01 6.108802296726544405e-30
2.081279607897187078e-01 6.225523362434923642e-30
2.081973525231161637e-01 6.344452778205419492e-30
2.082667673923413176e-01 6.465631870178645413e-30
2.083362054051080270e-01 6.589102765451730571e-30
2.084056665691325916e-01 6.714908346605102166e-30
2.084751508921337260e-01 6.843092327911425590e-30
2.085446583818328925e-01 6.973699181605175898e-30
2.086141890459540238e-01 7.106774241465579124e-30
2.086837428922236892e-01 7.242363653348621296e-30
2.087533199283710950e-01 7.380514457470288130e-30
2.088229201621278897e-01 7.521274508819584724e-30
2.088925436012284420e-01 7.664692588766225542e-30
2.089621902534096187e-01 7.810818366413414102e-30
2.090318601264107845e-01 7.959702412739983910e-30
2.091015532279739131e-01 8.111396263387306748e-30
2.091712695658437537e-01 8.265952392664806798e-30
2.092410091477674705e-01 8.423424242771405668e-30
2.093107719814948364e-01 8.583866242582222237e-30
2.093805580747781780e-01 8.747333809161900725e-30
2.094503674353725420e-01 8.913883415067902541e-30
2.095202000710353341e-01 9.083572558452573204e-30
2.095900559895266801e-01 9.256459780871922233e-30
2.096599351986093152e-01 9.432604738019238977e-30
2.097298377060485552e-01 9.612068168500761884e-30
2.097997635196123811e-01 9.794911930681339044e-30
2.098697126470710494e-01 9.981199022919351776e-30
2.099396850961977035e-01 1.017099358520157591e-29
2.100096808747680677e-01 1.036436097729784450e-29
2.100796999905602536e-01 1.056136774401422685e-29
2.101497424513552592e-01 1.076208165540816451e-29
2.102198082649363864e-01 1.096657170850748753e-29
2.102898974390897679e-01 1.117490821160030373e-29
2.103600099816040347e-01 1.138716274624857193e-29
2.104301459002703434e-01 1.160340821123196276e-29
2.105003052028824040e-01 1.182371882349939779e-29
2.105704878972368133e-01 1.204817020964861311e-29
2.106406939911325826e-01 1.227683936455648509e-29
2.107109234923712215e-01 1.250980469859801445e-29
2.107811764087569872e-01 1.274714599494862054e-29
2.108514527480967737e-01 1.298894464940446944e-29
2.109217525181998620e-01 1.323528341186070518e-29
2.109920757268783642e-01 1.348624668971690647e-29
2.110624223819471124e-01 1.374192033988213417e-29
2.111327924912229648e-01 1.400239179376058375e-29
2.112031860625259994e-01 1.426775014043833452e-29
2.112736031036786255e-01 1.453808607752907579e-29
2.113440436225058616e-01 1.481349193824660464e-29
2.114145076268353352e-01 1.509406183415061350e-29
2.114849951244974768e-01 1.537989148823644665e-29
2.115555061233250489e-01 1.567107843506137779e-29
2.116260406311536724e-01 1.596772205781909706e-29
2.116965986558212720e-01 1.626992343988963535e-29
2.117671802051687147e-01 1.657778560826601669e-29
2.118377852870393374e-01 1.689141344637506674e-29
2.119084139092790309e-01 1.721091375842267004e-29
2.119790660797364057e-01 1.753639527026252741e-29
2.120497418062626260e-01 1.786796876473429876e-29
2.121204410967115483e-01 1.820574701867549210e-29
2.121911639589395826e-01 1.854984487243954410e-29
2.122619104008056923e-01 1.890037922673373679e-29
2.123326804301716719e-01 1.925746922996495784e-29
2.124034740549016753e-01 1.962123607205211478e-29
2.124742912828626595e-01 1.999180322403113543e-29
2.125451321219241629e-01 2.036929630136518869e-29
2.126159965799583329e-01 2.075384334199443163e-29
2.126868846648399536e-01 2.114557483797069227e-29
2.127577963844464737e-01 2.154462353492231545e-29
2.128287317466578121e-01 2.195112456016263694e-29
2.128996907593566912e-01 2.236521563414614583e-29
2.129706734304284144e-01 2.278703682029691466e-29
2.130416797677608942e-01 2.321673082186948632e-29
2.131127097792446523e-01 2.365444286056610861e-29
2.131837634727728747e-01 2.410032093366790065e-29
2.132548408562413289e-01 2.455451581445896984e-29
2.133259419375485300e-01 2.501718076995519993e-29
2.133970667245954633e-01 2.548847214598502727e-29
2.134682152252859177e-01 2.596854888943560773e-29
2.135393874475261800e-01 2.645757304121931968e-29
2.136105833992251735e-01 2.695570939090857581e-29
2.136818030882946251e-01 2.746312582874017284e-29
2.137530465226487597e-01 2.797999340926345052e-29
2.138243137102044944e-01 2.850648608572293454e-29
2.138956046588812998e-01 2.904278113886745993e-29
2.139669193766012834e-01 2.958905902010815332e-29
2.140382578712894945e-01 3.014550340444263406e-29
2.141096201508731200e-01 3.070435704596489882e-29
2.141810062232823719e-01 3.128148793668114371e-29
2.142524160964500157e-01 3.186935104362956835e-29
2.143238497783114260e-01 3.246814365818493204e-29
2.143953072768046697e-01 3.307806659213220577e-29
2.144667885998703394e-01 3.369932442542108447e-29
2.145382937554518032e-01 3.433212538819874641e-29
2.146098227514950108e-01 3.497668149268591152e-29
2.146813755959486869e-01 3.563320851994274330e-29
2.147529522967639715e-01 3.629209920818212257e-29
2.148245528618948630e-01 3.696816858644296767e-29
2.148961772992979413e-01 3.766154803537303463e-29
2.149678256169323953e-01 3.836779078563279329e-29
2.150394978227601894e-01 3.908713280191484267e-29
2.151111939247458416e-01 3.981981402772995959e-29
2.151829139308563954e-01 4.056607888635498300e-29
2.152546578490618367e-01 4.132617639954249050e-29
2.153264256873347049e-01 4.210035975722849026e-29
2.153982174536501759e-01 4.288888695837865153e-29
2.154700331559858406e-01 4.369202060204420519e-29
2.155418728023224262e-01 4.451002804029299345e-29
2.156137364006430468e-01 4.533474380871854558e-29
2.156856239589334256e-01 4.617203176781284152e-29
2.157575354851821448e-01 4.703579131900303844e-29
2.158294709873802009e-01 4.791552873849398177e-29
2.159014304735215051e-01 4.881153614540243219e-29
2.159734139516024387e-01 4.972411054277856967e-29
2.160454214296221587e-01 5.065355458802560154e-29
2.161174529155825697e-01 5.160017627857133693e-29
2.161895084174878801e-01 5.256428907746294729e-29
2.162615879433454069e-01 5.354621227773602898e-29
2.163336915011650208e-01 5.454627077881365050e-29
2.164058190989590347e-01 5.556479536940600193e-29
2.164779707447426205e-01 5.660212279789647340e-29
2.165501464465336701e-01 5.765859571453247698e-29
2.166223462123525456e-01 5.873456318474990728e-29
2.166945700502225791e-01 5.983038039559179737e-29
2.167668179681694340e-01 6.094640893472753740e-29
2.168390899742217715e-01 6.207036865850080487e-29
2.169113860764107504e-01 6.321666366979955686e-29
2.169837062827701113e-01 6.439493086156686689e-29
2.170560506013366198e-01 6.559490456884885330e-29
2.171284190401493175e-01 6.681697938593306843e-29
2.172008116072502437e-01 6.806155726261682624e-29
2.172732283106838802e-01 6.932904713052557533e-29
2.173456691584975120e-01 7.061986530833339353e-29
2.174181341587410610e-01 7.193443539998282410e-29
2.174906233194673355e-01 7.327318901126495442e-29
2.175631366487315033e-01 7.463656493478341214e-29
2.176356741545915907e-01 7.602501018325583311e-29
2.177082358451083166e-01 7.743897943825272011e-29
2.177808217283450920e-01 7.887893601995129218e-29
2.178534318123679092e-01 8.034535087547912297e-29
2.179260661052455916e-01 8.183870389175958558e-29
2.179987246150495994e-01 8.335948307327162750e-29
2.180714073498540018e-01 8.490818569395357574e-29
2.181441143177356989e-01 8.648531721955380100e-29
2.182168455267741725e-01 8.809139261925565401e-29
2.182896009850516517e-01 8.972693594276451279e-29
2.183623807006531414e-01 9.139248026676506512e-29
2.184351846816661447e-01 9.308856856743066095e-29
2.185080129361809675e-01 9.481575331213559956e-29
2.185808654722906363e-01 9.654814310669302689e-29
2.186537422980908973e-01 9.832088935329491543e-29
2.187266434216800781e-01 1.001436037717704023e-28
2.187995688511593373e-01 1.019996925609367075e-28
2.188725185946324148e-01 1.038897582858165075e-28
2.189454926602059093e-01 1.058144140850208786e-28
2.190184910559889175e-01 1.077742835563815616e-28
2.190915137900934506e-01 1.097700020259671188e-28
2.191645608706340176e-01 1.118022158806189171e-28
2.192376323057280141e-01 1.138715827455927019e-28
2.193107281034955280e-01 1.159787720094834330e-28
2.193838482720592009e-01 1.181244645806930638e-28
2.194569928195444219e-01 1.203093539812847277e-28
2.195301617540793837e-01 1.225341456551228538e-28
2.196033550837951098e-01 1.247995573555856367e-28
2.196765728168250387e-01 1.271063201405983548e-28
2.197498149613053564e-01 1.294551771589082791e-28
2.198230815253751358e-01 1.318468851756875937e-28
2.198963725171761974e-01 1.342822137243585106e-28
2.199696879448528597e-01 1.367619471173048217e-28
2.200430278165522724e-01 1.392868819906264353e-28
2.201163921404244161e-01 1.418578299500492079e-28
2.201897809246217141e-01 1.444756167713693544e-28
2.202631941772993929e-01 1.471410819674322901e-28
2.203366319066156487e-01 1.498550808446915751e-28
2.204100941207310926e-01 1.526184834617294568e-28
2.204835808278091391e-01 1.554321747677725111e-28
2.205570920360162002e-01 1.582970553317130196e-28
2.206306277535209359e-01 1.612140413726675457e-28
2.207041879884950875e-01 1.641840658935177317e-28
2.207777727491129216e-01 1.672080775893772007e-28
2.208513820435515085e-01 1.702870418928114940e-28
2.209250158799907215e-01 1.734219407457472626e-28
2.209986742666131265e-01 1.766137742254445243e-28
2.210723572116037872e-01 1.798635586276830045e-28
2.211460647231507926e-01 1.831355616524967810e-28
2.212197968094448131e-01 1.864444931802551927e-28
2.212935534786794056e-01 1.898719021381449342e-28
2.213673347390506529e-01 1.933614426654697095e-28
2.214411405987574410e-01 1.969142217126368809e-28
2.215149710660014593e-01 2.005313653256916342e-28
2.215888261489870892e-01 2.042140184164929768e-28
2.216627058559213492e-01 2.079633471652132741e-28
2.217366101950142554e-01 2.117805366959530760e-28
2.218105391744781829e-01 2.156656103049825015e-28
2.218844928025285601e-01 2.081348606804701104e-28
2.219584710873834243e-01 2.118687257936519988e-28
2.220324740372637273e-01 2.156676420661867856e-28
2.221065016603927245e-01 2.097925695866898810e-28
2.221805539649969741e-01 2.108364050865156800e-28
2.222546309593053104e-01 2.145207488979007672e-28
2.223287326515496209e-01 2.182179695062605098e-28
2.224028590499643465e-01 2.087283881954628881e-28
2.224770101627867591e-01 2.122741300013379685e-28
2.225511859982568508e-01 2.158760635590201843e-28
2.226253865646174723e-01 2.195349465130529167e-28
2.226996118701140004e-01 2.189013918443660187e-28
2.227738619229947814e-01 2.122862799652800189e-28
2.228481367315106876e-01 2.157717544563755664e-28
2.229224363039155887e-01 2.193090772355720957e-28
2.229967606484659637e-01 2.228988684107224560e-28
2.230711097734211501e-01 2.265417533386903685e-28
2.231454836870430392e-01 2.219023621601983595e-28
2.232198823975963531e-01 2.174052785328585022e-28
2.232943059133486452e-01 2.208322766312269617e-28
2.233687542425702999e-01 2.243063323227110157e-28
2.234432273935342272e-01 2.278278721097777487e-28
2.235177253745162795e-01 2.313973343245156170e-28
2.235922481937950568e-01 2.350151452988600047e-28
2.236667958596517958e-01 2.344777463101823689e-28
2.237413683803705922e-01 2.232250518242605061e-28
2.238159657642382616e-01 2.265716117847660124e-28
2.238905880195443676e-01 2.299594311901260172e-28
2.239652351545813047e-01 2.333887609029439090e-28
2.240399071776442985e-01 2.368598157464275379e-28
2.241146040970311837e-01 2.403728048338207656e-28
2.241893259210424594e-01 2.439279551792719955e-28
2.242640726579817612e-01 2.475255004383467976e-28
2.243388443161551671e-01 2.511655771203800798e-28
2.244136409038716973e-01 2.362342070089732283e-28
2.244884624294430642e-01 2.362927425510831848e-28
2.245633089011838113e-01 2.396029201971535456e-28
2.246381803274111189e-01 2.429476506263092794e-28
2.247130767164451093e-01 2.463269297108312367e-28
2.247879980766085972e-01 2.497407327732736148e-28
2.248629444162272006e-01 2.531890029404396792e-28
2.249379157436292576e-01 2.566717215988459654e-28
2.250129120671459648e-01 2.601888793074002979e-28
2.250879333951112116e-01 2.637403592859439056e-28
2.251629797358616902e-01 2.673260116259763219e-28
2.252380510977369521e-01 2.709356316745664422e-28
2.253131474890791575e-01 2.609031403388336116e-28
2.253882689182334642e-01 2.515686377508919807e-28
2.254634153935476393e-01 2.547832791842684098e-28
2.255385869233724194e-01 2.580232481255361991e-28
2.256137835160610117e-01 2.612881643954609096e-28
2.256890051799696761e-01 2.645777474773370542e-28
2.257642519234574763e-01 2.678916828978143223e-28
2.258395237548860568e-01 2.712296330995485095e-28
2.259148206826199490e-01 2.745912100251835069e-28
2.259901427150266262e-01 2.779759625520765757e-28
2.260654898604761431e-01 2.813835442591781851e-28
2.261408621273413300e-01 2.848135046580957471e-28
2.262162595239979868e-01 2.882653883810869016e-28
2.262916820588246058e-01 2.917386997866157896e-28
2.263671297402023996e-01 2.952329430294334494e-28
2.264426025765155503e-01 2.987475487679676164e-28
2.265181005761509325e-01 3.022819307112104520e-28
2.265936237474981685e-01 2.861285294691834172e-28
2.266691720989497116e-01 2.857352176149030982e-28
2.267447456389009020e-01 2.889291860520403533e-28
2.268203443757498550e-01 2.921357231976984998e-28
2.268959683178973508e-01 2.953540838044675949e-28
2.269716174737470005e-01 2.985834627509176972e-28
2.270472918517054128e-01 3.018231895712319519e-28
2.271229914601818334e-01 3.050724063612376655e-28
2.271987163075883942e-01 3.083303738718653454e-28
2.272744664023398364e-01 3.115963570070161367e-28
2.273502417528539543e-01 3.148693111881690698e-28
2.274260423675512066e-01 3.181483526917926862e-28
2.275018682548549664e-01 3.214327024284453855e-28
2.275777194231912992e-01 3.247213412638383952e-28
2.276535958809891014e-01 3.280131674761066710e-28
2.277294976366801560e-01 3.313072551777689570e-28
2.278054246986989662e-01 3.346024652540606185e-28
2.278813770754829215e-01 3.378977854327451437e-28
2.279573547754721874e-01 3.411920973676180010e-28
2.280333578071098155e-01 3.444842400391157409e-28
2.281093861788414112e-01 3.477730013590798571e-28
2.281854398991157440e-01 3.510570819896065246e-28
2.282615189763842478e-01 3.543352932972121075e-28
2.283376234191011045e-01 3.402881937783108969e-28
