# Wavelength (um) - Flux (W m-2 um-1)
3.499999999999999778e-01 4.306028298399053931e-11
3.506938601832851887e-01 4.890175376754853962e-11
3.513890959150102189e-01 5.546589227053056034e-11
3.520857099221416653e-01 6.289726301677797642e-11
3.527837049370521894e-01 7.134413053301975672e-11
3.534830836975311752e-01 8.096849823270648710e-11
3.541838489467957207e-01 9.195566162705598054e-11
3.548860034335010738e-01 1.045132746060461794e-10
3.555895499117517344e-01 1.188974476058694000e-10
3.562944911411119464e-01 1.353578905731718723e-10
3.570008298866167440e-01 1.541289270212291990e-10
3.577085689187827211e-01 1.754775448204265554e-10
3.584177110136189670e-01 1.996845352177104892e-10
3.591282589526377245e-01 2.271162894767370513e-10
3.598402155228656585e-01 2.579691307517409044e-10
3.605535835168544589e-01 2.925111663556577500e-10
3.612683657326919984e-01 3.310088589321931842e-10
3.619845649740132121e-01 3.738532686936820430e-10
3.627021840500111449e-01 4.211380472157861115e-10
3.634212257754479425e-01 4.731280878108710274e-10
3.641416929706658978e-01 5.300067312536811658e-10
3.648635884615984981e-01 5.921677561394033067e-10
3.655869150797815270e-01 6.595826354019249540e-10
3.663116756623641668e-01 7.324199415238495794e-10
3.670378730521201560e-01 8.110396799985026425e-10
3.677655100974589475e-01 8.954274939198224605e-10
3.684945896524366438e-01 1.009146405309979923e-09
3.692251145767675991e-01 1.107421926089368206e-09
3.699570877358354104e-01 1.212075642472788852e-09
3.706905120007041310e-01 1.323118917644384028e-09
3.714253902481295389e-01 1.440818818980930970e-09
3.721617253605705167e-01 1.565304688517667080e-09
3.728995202262002651e-01 1.696526036591718786e-09
3.736387777389177378e-01 1.834752944789313257e-09
3.743795007983588552e-01 1.980032711376568035e-09
3.751216923099078837e-01 2.132246107606165565e-09
3.758653551847090379e-01 2.291615885821759440e-09
3.766104923396776938e-01 2.457863985664064212e-09
3.773571066975117683e-01 2.630855135455560305e-09
3.781052011867035434e-01 2.810744624117346154e-09
3.788547787415506574e-01 2.996745284683758102e-09
3.796058423021680395e-01 3.188373224935968793e-09
3.803583948144992344e-01 3.385186440417883202e-09
3.811124392303280040e-01 3.585966282851216037e-09
3.818679785072897626e-01 3.789813017698793438e-09
3.826250156088835119e-01 3.995232583250232903e-09
3.833835535044831655e-01 4.200699632991269129e-09
3.841435951693493167e-01 4.404007510636341615e-09
3.849051435846408409e-01 4.603069023387751375e-09
3.856682017374267191e-01 4.794963951507678292e-09
3.864327726206975844e-01 4.977374783985281271e-09
3.871988592333776014e-01 5.146750359593250671e-09
3.879664645803361789e-01 5.300263187692842725e-09
3.887355916723996274e-01 5.434364167012481712e-09
3.895062435263633160e-01 5.545612848628438096e-09
3.902784231650031077e-01 5.631177121745643893e-09
3.910521336170875162e-01 5.687119960523390188e-09
3.918273779173893079e-01 5.711994668167573011e-09
3.926041591066976033e-01 5.701885164784505299e-09
3.933824802318299230e-01 5.657158621212619056e-09
3.941623443456437892e-01 5.574494021799176530e-09
3.949437545070488831e-01 5.456255254232390032e-09
3.957267137810192015e-01 5.300380567403210921e-09
3.965112252386047698e-01 5.106855482966915300e-09
3.972972919569439099e-01 4.872320718916182348e-09
3.980849170192751751e-01 4.630837863066621250e-09
3.988741035149496739e-01 4.338318147295987313e-09
3.996648545394428376e-01 4.000380841565169041e-09
4.004571731943668000e-01 3.598458310998693740e-09
4.012510625874825543e-01 3.091151068117730696e-09
4.020465258327120539e-01 2.422305325225660084e-09
4.028435660501505367e-01 1.584202059326089590e-09
4.036421863660785703e-01 7.651754587431845471e-10
4.044423899129745981e-01 1.136461121668159836e-10
4.052441798295269848e-01 7.127733583837242242e-10
4.060475592606462847e-01 1.773354376707423653e-09
4.068525313574780644e-01 3.219206294969698130e-09
4.076590992774144495e-01 4.758651816035301966e-09
4.084672661841073360e-01 6.329668221426124778e-09
4.092770352474802142e-01 7.974002176421686320e-09
4.100884096437408810e-01 9.741885506460868259e-09
4.109013925553938740e-01 1.174753112142630535e-08
4.117159871712527952e-01 1.389465224219103998e-08
4.125321966864530787e-01 1.625849650930094141e-08
4.133500243024642584e-01 1.886692101780678398e-08
4.141694732271026802e-01 2.171358272938587853e-08
4.149905466745440474e-01 2.480763512027341663e-08
4.158132478653361330e-01 2.815287381054601035e-08
4.166375800264111584e-01 3.172589660860998978e-08
4.174635463910987276e-01 3.557894764210812572e-08
4.182911501991381509e-01 3.965548105990234658e-08
4.191203946966917671e-01 4.396697814993077297e-08
4.199512831363568788e-01 4.852956528946441944e-08
4.207838187771793526e-01 5.331881116115686425e-08
4.216180048846655537e-01 5.833424161874086438e-08
4.224538447307958910e-01 6.357909420431648321e-08
4.232913415940371404e-01 6.905167461272122456e-08
4.241304987593556564e-01 7.475084806070859501e-08
4.249713195182299730e-01 8.068382081218637436e-08
4.258138071686639048e-01 8.684675514039112648e-08
4.266579650151993697e-01 9.324969021762762423e-08
4.275037963689294895e-01 9.990475520553581854e-08
4.283513045475113579e-01 1.068159776464701610e-07
4.292004928751793069e-01 1.139910929811741084e-07
4.300513646827577863e-01 1.214574442813283312e-07
4.309039233076744635e-01 1.292154847789578537e-07
4.317581720939732692e-01 1.372787762338792460e-07
4.326141143923275534e-01 1.456692662288928839e-07
4.334717535600533522e-01 1.544217195031899455e-07
4.343310929611222670e-01 1.635183498743619534e-07
4.351921359661750643e-01 1.730027044118645716e-07
4.360548859525344434e-01 1.828919213185346795e-07
4.369193463042185255e-01 1.931924243761539149e-07
4.377855204119542321e-01 2.039242824026965468e-07
4.386534116731903299e-01 2.149822046858534675e-07
4.395230234921110313e-01 2.263578621556849436e-07
4.403943592796489837e-01 2.383156753708422610e-07
4.412674224534991474e-01 2.500064478256694287e-07
4.421422164381316189e-01 2.628336838511069088e-07
4.430187446648055638e-01 2.701755770969532416e-07
4.438970105715824288e-01 2.906027000022439179e-07
4.447770176033394307e-01 3.039822654136577615e-07
4.456587692117831567e-01 3.188975667099720465e-07
4.465422688554630537e-01 3.337769433441124718e-07
4.474275199997848063e-01 3.502052965630170230e-07
4.483145261170245477e-01 3.675103776541437766e-07
4.492032906863416275e-01 3.847871406498118553e-07
4.500938171937928778e-01 4.028225908032541304e-07
4.509861091323460469e-01 4.221732265959986699e-07
4.518801700018936218e-01 4.401867036948320099e-07
4.527760033092663727e-01 4.588682360127098210e-07
4.536736125682472309e-01 4.785095747808609909e-07
4.545730012995851110e-01 4.971733449791372164e-07
4.554741730310086778e-01 5.159443363709670844e-07
4.563771312972400018e-01 5.346552984675920328e-07
4.572818796400087704e-01 5.532057772596203057e-07
4.581884216080659433e-01 5.714789811807565551e-07
4.590967607571977416e-01 5.893596311897612307e-07
4.600069006502395808e-01 6.067314641104881928e-07
4.609188448570899488e-01 6.234045572191174151e-07
4.618325969547246723e-01 6.390433886043895514e-07
4.627481605272105725e-01 6.522849975616347079e-07
4.636655391657200642e-01 6.469394450064929772e-07
4.645847364685444791e-01 5.391107586065014361e-07
4.655057560411089979e-01 6.939386195383955804e-07
4.664286014959861393e-01 7.122385698942860311e-07
4.673532764529103045e-01 7.266184245494216526e-07
4.682797845387918767e-01 7.402448621752776109e-07
4.692081293877314319e-01 7.505052794675327945e-07
4.701383146410339497e-01 7.637000218994719756e-07
4.710703439472231357e-01 7.772125810089775449e-07
4.720042209620557982e-01 7.901472900961750666e-07
4.729399493485361705e-01 8.027911553165893223e-07
4.738775327769301215e-01 8.164653034763399493e-07
4.748169749247795890e-01 8.311537828139520051e-07
4.757582794769174561e-01 8.465477046053011818e-07
4.767014501254810965e-01 8.623356233147355616e-07
4.776464905699279728e-01 8.790838268691856808e-07
4.785934045170490148e-01 8.964622108125332339e-07
4.795421956809841624e-01 9.148581981683291658e-07
4.804928677832361328e-01 9.335449200258950018e-07
4.814454245526856302e-01 9.530207504076718893e-07
4.823998697256054458e-01 9.728932398461752953e-07
4.833562070456756676e-01 9.930494387238866796e-07
4.843144402639977808e-01 1.012995891361513558e-06
4.852745731391099326e-01 1.031955591683349314e-06
4.862366094370011993e-01 1.054070255610576911e-06
4.872005529311266847e-01 1.074148752884516530e-06
4.881664074024222311e-01 1.095666290907995873e-06
4.891341766393191848e-01 1.114165380171147507e-06
4.901038644377592735e-01 1.135664478792251817e-06
4.910754746012093719e-01 1.155388189591044152e-06
4.920490109406770451e-01 1.174812304768120091e-06
4.930244772747244264e-01 1.193849880542745468e-06
4.940018774294842596e-01 1.212559927566797867e-06
4.949812152386740549e-01 1.231029410216221369e-06
4.959624945436119647e-01 1.248663186977504266e-06
4.969457191932307727e-01 1.265918426623771319e-06
4.979308930440943248e-01 1.279308150920297378e-06
4.989180199604112964e-01 1.293805008008921123e-06
4.999071038140513457e-01 1.309602470554365264e-06
5.008981484845598242e-01 1.318946467710751365e-06
5.018911578591733758e-01 1.314170748142778237e-06
5.028861358328344799e-01 1.317557136728268169e-06
5.038830863082074396e-01 1.259797446387858337e-06
5.048820131956934798e-01 1.347480721817963267e-06
5.058829204134459578e-01 1.364340139387191070e-06
5.068858118873857954e-01 1.383669879229510657e-06
5.078906915512167997e-01 1.386976089965073550e-06
5.088975633464413173e-01 1.411195089049455511e-06
5.099064312223754447e-01 1.430777274625414045e-06
5.109172991361647931e-01 1.469055293937516367e-06
5.119301710527995875e-01 1.493396375619131160e-06
5.129450509451307649e-01 1.520805835207976238e-06
5.139619427938850738e-01 1.554743307290778142e-06
5.149808505876810605e-01 1.587839886471201166e-06
5.160017783230443911e-01 1.619171569433222187e-06
5.170247300044235050e-01 1.653591965716284207e-06
5.180497096442059357e-01 1.688085360083027255e-06
5.190767212627332983e-01 1.724507901466462881e-06
5.201057688883173880e-01 1.763889911435537455e-06
5.211368565572560563e-01 1.804429937797567601e-06
5.221699883138488651e-01 1.847642788313880653e-06
5.232051682104131851e-01 1.892443235624351274e-06
5.242424003072996275e-01 1.938619228553680275e-06
5.252816886729083645e-01 1.990296038555589718e-06
5.263230373837054499e-01 2.043600316888851060e-06
5.273664505242375844e-01 2.098245731370715892e-06
5.284119321871496577e-01 2.155211811389874752e-06
5.294594864731995143e-01 2.215110588439929487e-06
5.305091174912749397e-01 2.275520741988050193e-06
5.315608293584090926e-01 2.340963443441527956e-06
5.326146261997972697e-01 2.408241034488628812e-06
5.336705121488125592e-01 2.477273718259237968e-06
5.347284913470226053e-01 2.547461439325966390e-06
5.357885679442050408e-01 2.618172821881071986e-06
5.368507460983646951e-01 2.689423497524985552e-06
5.379150299757492482e-01 2.760679852535029487e-06
5.389814237508658845e-01 2.834033376814299615e-06
5.400499316064977240e-01 2.886985013341990195e-06
5.411205577337194761e-01 2.925107118333118093e-06
5.421933063319153145e-01 3.042332060828572196e-06
5.432681816087936433e-01 3.124757293504901210e-06
5.443451877804054151e-01 3.218664372750678848e-06
5.454243290711588976e-01 3.310405756945050136e-06
5.465056097138375479e-01 3.369173697630748646e-06
5.475890339496158887e-01 3.482314527229913080e-06
5.486746060280766057e-01 3.580752759195718750e-06
5.497623302072268681e-01 3.669823621474132226e-06
5.508522107535150925e-01 3.774473745718280103e-06
5.519442519418479298e-01 3.867191308438659121e-06
5.530384580556066965e-01 3.972101305622291834e-06
5.541348333866644715e-01 4.073668443726642081e-06
5.552333822354027504e-01 4.169794007865838185e-06
5.563341089107282089e-01 4.268083519600373446e-06
5.574370177300899121e-01 4.361928179170520810e-06
5.585421130194961892e-01 4.453787910939607728e-06
5.596493991135309543e-01 4.543420386978976573e-06
5.607588803553721357e-01 4.629227245983134327e-06
5.618705610968067754e-01 4.716041957653506970e-06
5.629844456982502354e-01 4.796349794479221733e-06
5.641005385287614082e-01 4.874566069832653227e-06
5.652188439660609243e-01 4.947131824127747671e-06
5.663393663965482494e-01 5.003281778066775621e-06
5.674621102153183383e-01 5.019759883111650851e-06
5.685870798261795089e-01 4.927147655345738079e-06
5.697142796416703181e-01 5.056246980390858833e-06
5.708437140830771028e-01 5.182416787399952591e-06
5.719753875804510779e-01 5.151519861288827733e-06
5.731093045726258772e-01 5.169044456259260996e-06
5.742454695072350956e-01 5.156303116507435366e-06
5.753838868407292750e-01 5.167252439216286062e-06
5.765245610383941122e-01 5.139515259684905826e-06
5.776674965743670009e-01 5.044117308688534675e-06
5.788126979316554621e-01 5.009378706070058411e-06
5.799601696021545738e-01 4.917435274024250952e-06
5.811099160866638469e-01 4.730612990640094302e-06
5.822619418949059877e-01 4.548548736896830355e-06
5.834162515455436626e-01 4.288879384740478211e-06
5.845728495661978164e-01 3.947396367276139252e-06
5.857317404934651028e-01 3.419145288737823687e-06
5.868929288729358706e-01 2.649137599658404946e-06
5.880564192592117045e-01 1.371407497356716169e-06
5.892222162159238552e-01 2.522668970331150594e-07
5.903903243157504477e-01 1.030468340155442459e-06
5.915607481404348000e-01 2.757363622973475086e-06
5.927334922808035200e-01 4.083991768115265923e-06
5.939085613367841576e-01 5.354545493401140301e-06
5.950859599174235237e-01 6.145128867335446689e-06
5.962656926409057867e-01 7.255501035511411258e-06
5.974477641345700141e-01 8.542915407011133895e-06
5.986321790349292682e-01 9.569665554097666525e-06
5.998189419876881479e-01 1.081977492481184236e-05
6.010080576477609959e-01 1.241137816683317895e-05
6.021995306792905511e-01 1.393672297154299080e-05
6.033933657556659336e-01 1.545789473979433768e-05
6.045895675595410745e-01 1.714230815819953250e-05
6.057881407828531461e-01 1.912048165177050328e-05
6.069890901268405470e-01 2.108407952637240897e-05
6.081924203020619979e-01 2.313500257903208532e-05
6.093981360284147497e-01 2.521672507849824344e-05
6.106062420351527908e-01 2.755469189600858303e-05
6.118167430609059432e-01 2.984622958353520884e-05
6.130296438536979586e-01 3.236205058487453190e-05
6.142449491709652820e-01 3.497707648164049307e-05
6.154626637795761468e-01 3.772201742706752934e-05
6.166827924558484497e-01 4.060506669381189931e-05
6.179053399855690687e-01 4.366640628591927372e-05
6.191303111640127366e-01 4.690243271116807064e-05
6.203577107959604708e-01 5.026908000886841615e-05
6.215875436957183364e-01 5.386713870852417012e-05
6.228198146871369856e-01 5.760105500969382795e-05
6.240545286036297545e-01 6.151193413487669780e-05
6.252916902881922034e-01 6.512668576205712478e-05
6.265313045934209901e-01 6.859650929400409674e-05
6.277733763815327439e-01 7.312848898514073088e-05
6.290179105243831614e-01 7.898563395227595923e-05
6.302649119034864356e-01 8.474777253005600535e-05
6.315143854100337961e-01 8.964905903666273330e-05
6.327663359449133829e-01 9.444713116965577015e-05
6.340207684187288972e-01 1.008638610405428068e-04
6.352776877518192533e-01 1.077464358903014550e-04
6.365370988742777847e-01 1.138900081017100264e-04
6.377990067259713403e-01 1.209058651884164972e-04
6.390634162565598242e-01 1.271905469899540706e-04
6.403303324255159579e-01 1.354898394793040812e-04
6.415997602021441537e-01 1.427172393935867640e-04
6.428717045656001661e-01 1.517190823234407097e-04
6.441461705049108533e-01 1.545512292533501408e-04
6.454231630189937174e-01 1.582865637357613008e-04
6.467026871166762225e-01 1.530780707517709653e-04
6.479847478167156671e-01 1.674774594363006317e-04
6.492693501478188356e-01 1.857869044360029108e-04
6.505564991486617599e-01 2.064465399501999707e-04
6.518461998679093705e-01 1.911605049496245187e-04
6.531384573642354807e-01 2.261818345974085122e-04
6.544332767063422152e-01 2.413510320933539622e-04
6.557306629729804381e-01 2.448235580018957988e-04
6.570306212529695156e-01 2.559653607614348651e-04
6.583331566452168548e-01 2.781805798125975616e-04
6.596382742587384440e-01 3.041905686641971926e-04
6.609459792126787248e-01 3.169023992252968463e-04
6.622562766363304654e-01 3.440447470499315196e-04
6.635691716691552999e-01 3.599558432525297794e-04
6.648846694608032681e-01 3.868825232303416085e-04
6.662027751711334655e-01 4.102083273049790860e-04
6.675234939702344716e-01 4.354063474525163009e-04
6.688468310384441118e-01 4.624660178661085222e-04
6.701727915663699964e-01 4.902937842989902716e-04
6.715013807549099489e-01 5.183868066102042139e-04
6.728326038152724342e-01 5.463396254530175720e-04
6.741664659689967642e-01 5.782849944645487763e-04
6.755029724479738595e-01 6.088259203097739309e-04
6.768421284944665661e-01 6.406135137548129438e-04
6.781839393611303057e-01 6.728598123193653543e-04
6.795284103110337259e-01 7.068675514757424795e-04
6.808755466176791282e-01 7.411650019271432419e-04
6.822253535650235623e-01 7.736442541514822841e-04
6.835778364474991431e-01 8.121158700121811937e-04
6.849330005700339230e-01 8.492706255806708755e-04
6.862908512480728751e-01 8.878538522375672721e-04
6.876513938075984322e-01 9.295064430947975890e-04
6.890146335851516923e-01 9.617293585838887450e-04
6.903805759278532905e-01 9.544514210073109768e-04
6.917492261934242714e-01 8.563433602536667114e-04
6.931205897502070723e-01 7.599216997652966966e-04
6.944946719771865062e-01 8.680466184795491806e-04
6.958714782640114116e-01 9.746918173172594135e-04
6.972510140110148580e-01 1.108524361256283189e-03
6.986332846292361287e-01 1.098482313819395834e-03
7.000182955404418150e-01 1.048502089672316865e-03
7.014060521771465773e-01 1.080696894642452915e-03
7.027965599826351273e-01 1.101568389384103338e-03
7.041898244109829896e-01 1.116840909889594679e-03
7.055858509270783729e-01 1.160596554375980518e-03
7.069846450066432642e-01 1.199566782221920267e-03
7.083862121362551889e-01 1.241394842156401303e-03
7.097905578133681948e-01 1.226602397126310166e-03
7.111976875463352776e-01 1.258068285718075274e-03
7.126076068544293651e-01 1.250356666666862550e-03
7.140203212678648548e-01 1.263299792141893158e-03
7.154358363278199295e-01 1.124640739306590658e-03
7.168541575864576521e-01 6.733026981781524162e-04
7.182752906069482801e-01 7.553726235669284842e-04
7.196992409634904719e-01 8.399658542688166274e-04
7.211260142413337126e-01 9.857693603678506326e-04
7.225556160368000747e-01 1.147012054691484836e-03
7.239880519573058670e-01 1.022337515989167741e-03
7.254233276213841730e-01 1.047226611300329426e-03
7.268614486587061663e-01 1.057818029184300242e-03
7.283024207101040925e-01 1.192944943912264575e-03
7.297462494275925859e-01 1.112451613284163449e-03
7.311929404743913175e-01 1.018666140892549683e-03
7.326424995249467553e-01 1.269387269612096180e-03
7.340949322649550357e-01 1.446088639693825142e-03
7.355502443913839450e-01 1.389682521178855655e-03
7.370084416124950133e-01 1.441007109782087292e-03
7.384695296478663851e-01 1.539661254640326080e-03
7.399335142284149125e-01 1.596118879101974261e-03
7.414004010964189151e-01 1.696000105619963755e-03
7.428701960055402731e-01 1.830615124624297490e-03
7.443429047208474092e-01 1.823240645412742408e-03
7.458185330188378259e-01 1.944981905508806966e-03
7.472970866874605322e-01 2.031087420473223076e-03
7.487785715261390251e-01 2.039726968082634841e-03
7.502629933457937161e-01 2.065461523824786705e-03
7.517503579688651349e-01 2.056912386369804790e-03
7.532406712293365780e-01 2.060620473567180682e-03
7.547339389727567571e-01 2.049397173794376137e-03
7.562301670562631140e-01 2.017793027185326837e-03
7.577293613486043578e-01 1.970161955367124174e-03
7.592315277301641130e-01 1.887075194841164680e-03
7.607366720929834569e-01 1.776796441281705812e-03
7.622448003407840122e-01 1.629003505429497262e-03
7.637559183889915948e-01 1.401158257672377363e-03
7.652700321647588622e-01 9.838803061505286673e-04
7.667871476069888503e-01 4.711877819908795212e-04
7.683072706663583995e-01 9.667542160884233125e-04
7.698304073053409136e-01 7.649560586110973250e-04
