# Wavelength (um) - Flux (W m-2 um-1)
3.499999999999999778e-01 5.852058584005322864e-13
3.506938601832851887e-01 6.837365905631378798e-13
3.513890959150102189e-01 7.920579943159458403e-13
3.520857099221416653e-01 9.112177942552580815e-13
3.527837049370521894e-01 1.042183691932916253e-12
3.534830836975311752e-01 1.185659950778549612e-12
3.541838489467957207e-01 1.342622856858313006e-12
3.548860034335010738e-01 1.514071592538357452e-12
3.555895499117517344e-01 1.701227685428179834e-12
3.562944911411119464e-01 1.905201936079140702e-12
3.570008298866167440e-01 2.126887605585693663e-12
3.577085689187827211e-01 3.611482283143184767e-12
3.584177110136189670e-01 3.974737237814474950e-12
3.591282589526377245e-01 4.368520176183645928e-12
3.598402155228656585e-01 4.794156492773569062e-12
3.605535835168544589e-01 5.253857650911849745e-12
3.612683657326919984e-01 5.750031708478738662e-12
3.619845649740132121e-01 6.286466063948019365e-12
3.627021840500111449e-01 6.864146325803914025e-12
3.634212257754479425e-01 7.487294493126791773e-12
3.641416929706658978e-01 8.156916929313820186e-12
3.648635884615984981e-01 8.880191269697134801e-12
3.655869150797815270e-01 9.656840104066583403e-12
3.663116756623641668e-01 1.049022097436020312e-11
3.670378730521201560e-01 1.138619466335596133e-11
3.677655100974589475e-01 1.234668383039205340e-11
3.684945896524366438e-01 1.337500373991489079e-11
3.692251145767675991e-01 1.447684364062949125e-11
3.699570877358354104e-01 1.565589853168458943e-11
3.706905120007041310e-01 1.691498802893463572e-11
3.714253902481295389e-01 1.826038069750787626e-11
3.721617253605705167e-01 1.969697174995706944e-11
3.728995202262002651e-01 2.122738950938328423e-11
3.736387777389177378e-01 2.285914419998514253e-11
3.743795007983588552e-01 2.459711183147141868e-11
3.751216923099078837e-01 2.644418129413969482e-11
3.758653551847090379e-01 2.840962259910468094e-11
3.766104923396776938e-01 3.049594848274440038e-11
3.773571066975117683e-01 3.270681423625230718e-11
3.781052011867035434e-01 3.505403526700130731e-11
3.788547787415506574e-01 3.753489649426967191e-11
3.796058423021680395e-01 4.015608642880912023e-11
3.803583948144992344e-01 4.292247945709746206e-11
3.811124392303280040e-01 4.583108898434614346e-11
3.818679785072897626e-01 4.889037553403778969e-11
3.826250156088835119e-01 5.209346154505459826e-11
3.833835535044831655e-01 5.544147160772526042e-11
3.841435951693493167e-01 5.892949776827861671e-11
3.849051435846408409e-01 6.254759863789494986e-11
3.856682017374267191e-01 6.629275830957542073e-11
3.864327726206975844e-01 7.014602178861447507e-11
3.871988592333776014e-01 7.409642678920834336e-11
3.879664645803361789e-01 7.812164274330524996e-11
3.887355916723996274e-01 8.219903982731646942e-11
3.895062435263633160e-01 8.629906944114435242e-11
3.902784231650031077e-01 9.038723428049538531e-11
3.910521336170875162e-01 9.441899468022610531e-11
3.918273779173893079e-01 9.834642824546882700e-11
3.926041591066976033e-01 1.020982694830057563e-10
3.933824802318299230e-01 1.056095484288310397e-10
3.941623443456437892e-01 1.087625758423054820e-10
3.949437545070488831e-01 1.114640875657424471e-10
3.957267137810192015e-01 1.135243309854480692e-10
3.965112252386047698e-01 1.146534025728888638e-10
3.972972919569439099e-01 1.144985128032026105e-10
3.980849170192751751e-01 1.141345800887052254e-10
3.988741035149496739e-01 1.116746481512539124e-10
3.996648545394428376e-01 1.074889856589242411e-10
4.004571731943668000e-01 1.017413666812442285e-10
4.012510625874825543e-01 9.424256424058653709e-11
4.020465258327120539e-01 8.985293426927663410e-11
4.028435660501505367e-01 8.743876860356743997e-11
4.036421863660785703e-01 6.858013364002958031e-11
4.044423899129745981e-01 1.698132858264667840e-11
4.052441798295269848e-01 7.015532061633668779e-11
4.060475592606462847e-01 1.097619621718755031e-10
4.068525313574780644e-01 1.421367964244965777e-10
4.076590992774144495e-01 1.764989659630369388e-10
4.084672661841073360e-01 2.142476559512025485e-10
4.092770352474802142e-01 2.552202994841552457e-10
4.100884096437408810e-01 2.988235183149104350e-10
4.109013925553938740e-01 3.448190024676149038e-10
4.117159871712527952e-01 3.931521980058035215e-10
4.125321966864530787e-01 4.437660031279788084e-10
4.133500243024642584e-01 4.969325204060264802e-10
4.141694732271026802e-01 5.526741521096738956e-10
4.149905466745440474e-01 6.112383931949420139e-10
4.158132478653361330e-01 6.728323607634812011e-10
4.166375800264111584e-01 7.369924261190785920e-10
4.174635463910987276e-01 8.059039137211453192e-10
4.182911501991381509e-01 8.777090926678111668e-10
4.191203946966917671e-01 9.533374156690907856e-10
4.199512831363568788e-01 1.033468039486659886e-09
4.207838187771793526e-01 1.117765141548558228e-09
4.216180048846655537e-01 1.206480486280232753e-09
4.224538447307958910e-01 1.299926364540071984e-09
4.232913415940371404e-01 1.398465330529597332e-09
4.241304987593556564e-01 1.502234796197825201e-09
4.249713195182299730e-01 1.611634544739725581e-09
4.258138071686639048e-01 1.726795886130289413e-09
4.266579650151993697e-01 1.848152043352861285e-09
4.275037963689294895e-01 1.976224996407706767e-09
4.283513045475113579e-01 2.111117052368108426e-09
4.292004928751793069e-01 2.253305999356208136e-09
4.300513646827577863e-01 2.403540770970667158e-09
4.309039233076744635e-01 2.561972915113044419e-09
4.317581720939732692e-01 2.729016735543035578e-09
4.326141143923275534e-01 2.905627215604292791e-09
4.334717535600533522e-01 3.092102622790297125e-09
4.343310929611222670e-01 3.288873415727936361e-09
4.351921359661750643e-01 3.496754245657966483e-09
4.360548859525344434e-01 3.716626874775365097e-09
4.369193463042185255e-01 3.948775928494984116e-09
4.377855204119542321e-01 4.193881032545270143e-09
4.386534116731903299e-01 4.449415062945501284e-09
4.395230234921110313e-01 4.716099870802959854e-09
4.403943592796489837e-01 4.998562143932557432e-09
4.412674224534991474e-01 5.276632787465947524e-09
4.421422164381316189e-01 5.589229229852345184e-09
4.430187446648055638e-01 5.743761256314973913e-09
4.438970105715824288e-01 6.288016869855038956e-09
4.447770176033394307e-01 6.623582529030747698e-09
4.456587692117831567e-01 7.014951705871308736e-09
4.465422688554630537e-01 7.410621416686152250e-09
4.474275199997848063e-01 7.861895182415262696e-09
4.483145261170245477e-01 8.350143302921373303e-09
4.492032906863416275e-01 8.848665410669638516e-09
4.500938171937928778e-01 9.385194270108549804e-09
4.509861091323460469e-01 9.972263047302297870e-09
4.518801700018936218e-01 1.053961145833786623e-08
4.527760033092663727e-01 1.114672471620621396e-08
4.536736125682472309e-01 1.180375576149199882e-08
4.545730012995851110e-01 1.246079086206292728e-08
4.554741730310086778e-01 1.315087645499439173e-08
4.563771312972400018e-01 1.387344690849122048e-08
4.572818796400087704e-01 1.462812855156651214e-08
4.581884216080659433e-01 1.541511024801484491e-08
4.590967607571977416e-01 1.623465402803560108e-08
4.600069006502395808e-01 1.708834046039636730e-08
4.609188448570899488e-01 1.798529357943767255e-08
4.618325969547246723e-01 1.894089733984765851e-08
4.627481605272105725e-01 1.987314868781117746e-08
4.636655391657200642e-01 2.057496140884961648e-08
4.645847364685444791e-01 1.918069444807361964e-08
4.655057560411089979e-01 2.297031795923441389e-08
4.664286014959861393e-01 2.415155701820780820e-08
4.673532764529103045e-01 2.532968962106579823e-08
4.682797845387918767e-01 2.656905109209294343e-08
4.692081293877314319e-01 2.768042583559593801e-08
4.701383146410339497e-01 2.901883806192825427e-08
4.710703439472231357e-01 3.042150786069219168e-08
4.720042209620557982e-01 3.182568325250877826e-08
4.729399493485361705e-01 3.323762860551345687e-08
4.738775327769301215e-01 3.473567328304701035e-08
4.748169749247795890e-01 3.630651402735035577e-08
4.757582794769174561e-01 3.792662263830637174e-08
4.767014501254810965e-01 3.956700678255664856e-08
4.776464905699279728e-01 4.127030113541114542e-08
4.785934045170490148e-01 4.300760804400867326e-08
4.795421956809841624e-01 4.481417950361580113e-08
4.804928677832361328e-01 4.664299847379797283e-08
4.814454245526856302e-01 4.853908819041474395e-08
4.823998697256054458e-01 5.048139822243958202e-08
4.833562070456756676e-01 5.246986643323085260e-08
4.843144402639977808e-01 5.447246859135704801e-08
4.852745731391099326e-01 5.644238031800398033e-08
4.862366094370011993e-01 5.873994842002004590e-08
4.872005529311266847e-01 6.092922629215227963e-08
4.881664074024222311e-01 6.334334721224332357e-08
4.891341766393191848e-01 6.557138358908773593e-08
4.901038644377592735e-01 6.818365196198559001e-08
4.910754746012093719e-01 7.074802119255793487e-08
4.920490109406770451e-01 7.341458079948145503e-08
4.930244772747244264e-01 7.617949718765910360e-08
4.940018774294842596e-01 7.906283062367376378e-08
4.949812152386740549e-01 8.207696781994123413e-08
4.959624945436119647e-01 8.516133950742270000e-08
4.969457191932307727e-01 8.837455088310183797e-08
4.979308930440943248e-01 9.133933006655937335e-08
4.989180199604112964e-01 9.465401870695337230e-08
4.999071038140513457e-01 9.819177322854842217e-08
5.008981484845598242e-01 1.011369781130212611e-07
5.018911578591733758e-01 1.023696345839214771e-07
5.028861358328344799e-01 1.048132373068370231e-07
5.038830863082074396e-01 9.948579400717619758e-08
5.048820131956934798e-01 1.128587729623655341e-07
5.058829204134459578e-01 1.173643670512916160e-07
5.068858118873857954e-01 1.223533976801362699e-07
5.078906915512167997e-01 1.250196205613993970e-07
5.088975633464413173e-01 1.308953348949369509e-07
5.099064312223754447e-01 1.359834356928152174e-07
5.109172991361647931e-01 1.442369195967254672e-07
5.119301710527995875e-01 1.502651486688193692e-07
5.129450509451307649e-01 1.567871569777825376e-07
5.139619427938850738e-01 1.643784526834753219e-07
5.149808505876810605e-01 1.717853420478906299e-07
5.160017783230443911e-01 1.788195178885800497e-07
5.170247300044235050e-01 1.862482719166494916e-07
5.180497096442059357e-01 1.935197994970119216e-07
5.190767212627332983e-01 2.009540624269405255e-07
5.201057688883173880e-01 2.087476534192014192e-07
5.211368565572560563e-01 2.165073663223470952e-07
5.221699883138488651e-01 2.245623489048683713e-07
5.232051682104131851e-01 2.326459906342907172e-07
5.242424003072996275e-01 2.407118693668386335e-07
5.252816886729083645e-01 2.497695936238635870e-07
5.263230373837054499e-01 2.588777696475043371e-07
5.273664505242375844e-01 2.679943179014874208e-07
5.284119321871496577e-01 2.773883956580934329e-07
5.294594864731995143e-01 2.872029094124758178e-07
5.305091174912749397e-01 2.968807874511863847e-07
5.315608293584090926e-01 3.075633699657283370e-07
5.326146261997972697e-01 3.184781481226103838e-07
5.336705121488125592e-01 3.296256800713386702e-07
5.347284913470226053e-01 3.408897226235197208e-07
5.357885679442050408e-01 3.521160498045613590e-07
5.368507460983646951e-01 3.633130482198834873e-07
5.379150299757492482e-01 3.743647592337908642e-07
5.389814237508658845e-01 3.858562547543673898e-07
5.400499316064977240e-01 3.921375800639272432e-07
5.411205577337194761e-01 3.948778735733182868e-07
5.421933063319153145e-01 4.170105717897379512e-07
5.432681816087936433e-01 4.306125743604744410e-07
5.443451877804054151e-01 4.470285659600325778e-07
5.454243290711588976e-01 4.632309769848992521e-07
5.465056097138375479e-01 4.707604456790767836e-07
5.475890339496158887e-01 4.924518798586078436e-07
5.486746060280766057e-01 5.103486513102210431e-07
5.497623302072268681e-01 5.259991160415820066e-07
5.508522107535150925e-01 5.460084699185694939e-07
5.519442519418479298e-01 5.631144125153019512e-07
5.530384580556066965e-01 5.837184968919184792e-07
5.541348333866644715e-01 6.038549481031745419e-07
5.552333822354027504e-01 6.229173439964731889e-07
5.563341089107282089e-01 6.428169241965046495e-07
5.574370177300899121e-01 6.621363483056880620e-07
5.585421130194961892e-01 6.814645300722490883e-07
5.596493991135309543e-01 7.009024150034613026e-07
5.607588803553721357e-01 7.200069607079376803e-07
5.618705610968067754e-01 7.403145136296723839e-07
5.629844456982502354e-01 7.597147176534223148e-07
5.641005385287614082e-01 7.796951487080677712e-07
5.652188439660609243e-01 7.992206253715501254e-07
5.663393663965482494e-01 8.150714249240503009e-07
5.674621102153183383e-01 8.211800051986902822e-07
5.685870798261795089e-01 7.975576524633705472e-07
5.697142796416703181e-01 8.383130095647893436e-07
5.708437140830771028e-01 8.811129790951262336e-07
5.719753875804510779e-01 8.789848470923996014e-07
5.731093045726258772e-01 8.936626653183802054e-07
5.742454695072350956e-01 9.004388400377823901e-07
5.753838868407292750e-01 9.168059159269512669e-07
5.765245610383941122e-01 9.233210343486700789e-07
5.776674965743670009e-01 9.085934283449392977e-07
5.788126979316554621e-01 9.170280746715382570e-07
5.799601696021545738e-01 9.085536628494862877e-07
5.811099160866638469e-01 8.682968743053707324e-07
5.822619418949059877e-01 8.346296443079776680e-07
5.834162515455436626e-01 7.791462442794622346e-07
5.845728495661978164e-01 7.063538269598561781e-07
5.857317404934651028e-01 5.878961849012454296e-07
5.868929288729358706e-01 4.268898714832952828e-07
5.880564192592117045e-01 2.285160317394821956e-07
5.892222162159238552e-01 8.813179270375369573e-08
5.903903243157504477e-01 1.947038265068546673e-07
5.915607481404348000e-01 4.295182764719092563e-07
5.927334922808035200e-01 6.747459886473984338e-07
5.939085613367841576e-01 9.271659202796935943e-07
5.950859599174235237e-01 1.048556935455246288e-06
5.962656926409057867e-01 1.262041799689914746e-06
5.974477641345700141e-01 1.527130631870480305e-06
5.986321790349292682e-01 1.691880974726885843e-06
5.998189419876881479e-01 1.917198947845544003e-06
6.010080576477609959e-01 2.229392464873524298e-06
6.021995306792905511e-01 2.517069085471766424e-06
6.033933657556659336e-01 2.778697595911911890e-06
6.045895675595410745e-01 3.079904853140915861e-06
6.057881407828531461e-01 3.458701560471797526e-06
6.069890901268405470e-01 3.818944606438307577e-06
6.081924203020619979e-01 4.184522857821758893e-06
6.093981360284147497e-01 4.541175718697138650e-06
6.106062420351527908e-01 4.961571095459494125e-06
6.118167430609059432e-01 5.347891852522568249e-06
6.130296438536979586e-01 5.782196224443685336e-06
6.142449491709652820e-01 6.229703236741120084e-06
6.154626637795761468e-01 6.695179066435989830e-06
6.166827924558484497e-01 7.183341482659042272e-06
6.179053399855690687e-01 7.702868018746198973e-06
6.191303111640127366e-01 8.253410683896578805e-06
6.203577107959604708e-01 8.820649180393830489e-06
6.215875436957183364e-01 9.431387147506156492e-06
6.228198146871369856e-01 1.005824834578370880e-05
6.240545286036297545e-01 1.071286094494308241e-05
6.252916902881922034e-01 1.123795307361990375e-05
6.265313045934209901e-01 1.170660048766409377e-05
6.277733763815327439e-01 1.246118997936699521e-05
6.290179105243831614e-01 1.357579019179152624e-05
6.302649119034864356e-01 1.463558643676977383e-05
6.315143854100337961e-01 1.538380707196777063e-05
6.327663359449133829e-01 1.606905650214997903e-05
6.340207684187288972e-01 1.719895156507173051e-05
6.352776877518192533e-01 1.843802347195661574e-05
6.365370988742777847e-01 1.939740219793187453e-05
6.377990067259713403e-01 2.056674718198182628e-05
6.390634162565598242e-01 2.146733413193407204e-05
6.403303324255159579e-01 2.293323328184153232e-05
6.415997602021441537e-01 2.401546953925529532e-05
6.428717045656001661e-01 2.558900622454429898e-05
6.441461705049108533e-01 2.532822492748663517e-05
6.454231630189937174e-01 2.538406922305898954e-05
6.467026871166762225e-01 2.318710832741201262e-05
6.479847478167156671e-01 2.589561082478885636e-05
6.492693501478188356e-01 2.960094801064751697e-05
6.505564991486617599e-01 3.379823612326239227e-05
6.518461998679093705e-01 2.909507578312833337e-05
6.531384573642354807e-01 3.656068450856721452e-05
6.544332767063422152e-01 3.929844576077388962e-05
6.557306629729804381e-01 3.875144916438458910e-05
6.570306212529695156e-01 4.023595639883637161e-05
6.583331566452168548e-01 4.455978462634898495e-05
6.596382742587384440e-01 4.972016309446020376e-05
6.609459792126787248e-01 5.148289168216628166e-05
6.622562766363304654e-01 5.663877381376108315e-05
6.635691716691552999e-01 5.898199693647242448e-05
6.648846694608032681e-01 6.402221030534860705e-05
6.662027751711334655e-01 6.804913342564562545e-05
6.675234939702344716e-01 7.246193281843762903e-05
6.688468310384441118e-01 7.725894896541004816e-05
6.701727915663699964e-01 8.214783944946844484e-05
6.715013807549099489e-01 8.695982031271423218e-05
6.728326038152724342e-01 9.155662431189806583e-05
6.741664659689967642e-01 9.713902024718492993e-05
6.755029724479738595e-01 1.021144989131181807e-04
6.768421284944665661e-01 1.072731722250820836e-04
6.781839393611303057e-01 1.123777365528550555e-04
6.795284103110337259e-01 1.178302416125819128e-04
6.808755466176791282e-01 1.231781802364624384e-04
6.822253535650235623e-01 1.278263986873205628e-04
6.835778364474991431e-01 1.341200198495889288e-04
6.849330005700339230e-01 1.399528031905488106e-04
6.862908512480728751e-01 1.460735165188456074e-04
6.876513938075984322e-01 1.531006679843768586e-04
6.890146335851516923e-01 1.573425535330972192e-04
6.903805759278532905e-01 1.517052090793229722e-04
6.917492261934242714e-01 1.261100156782355352e-04
6.931205897502070723e-01 1.034695533136513614e-04
6.944946719771865062e-01 1.235455365879155364e-04
6.958714782640114116e-01 1.449231370147805516e-04
6.972510140110148580e-01 1.729685453130493697e-04
6.986332846292361287e-01 1.682668114915881238e-04
7.000182955404418150e-01 1.551953547063972369e-04
7.014060521771465773e-01 1.603355799005182864e-04
7.027965599826351273e-01 1.642623923973706259e-04
7.041898244109829896e-01 1.661337914469295082e-04
7.055858509270783729e-01 1.745723017202212713e-04
7.069846450066432642e-01 1.826107884964637477e-04
7.083862121362551889e-01 1.927017348105268893e-04
7.097905578133681948e-01 1.862797157461193519e-04
7.111976875463352776e-01 1.940628809424085660e-04
7.126076068544293651e-01 1.917084739490113726e-04
7.140203212678648548e-01 1.933378698115793934e-04
7.154358363278199295e-01 1.633082374840314388e-04
7.168541575864576521e-01 7.945866901940340445e-05
7.182752906069482801e-01 8.962294673872620997e-05
7.196992409634904719e-01 1.033040055010209295e-04
7.211260142413337126e-01 1.300226949781104705e-04
7.225556160368000747e-01 1.651974336243066115e-04
7.239880519573058670e-01 1.371256796948256090e-04
7.254233276213841730e-01 1.447300859377367768e-04
7.268614486587061663e-01 1.458161850379419470e-04
7.283024207101040925e-01 1.739812924029051928e-04
7.297462494275925859e-01 1.566980054702416469e-04
7.311929404743913175e-01 1.380658706130986088e-04
7.326424995249467553e-01 1.925647773349551338e-04
7.340949322649550357e-01 2.332382639863149097e-04
7.355502443913839450e-01 2.200597356352414853e-04
7.370084416124950133e-01 2.288344642292409570e-04
7.384695296478663851e-01 2.552215706220243782e-04
7.399335142284149125e-01 2.697804419025390927e-04
7.414004010964189151e-01 2.981035205224100344e-04
7.428701960055402731e-01 3.346542607342447261e-04
7.443429047208474092e-01 3.322139892848968799e-04
7.458185330188378259e-01 3.686260102590198612e-04
7.472970866874605322e-01 3.967481940376853776e-04
7.487785715261390251e-01 4.013955820987830493e-04
7.502629933457937161e-01 4.220892793717821679e-04
7.517503579688651349e-01 4.327135129148988561e-04
7.532406712293365780e-01 4.404836748538449838e-04
7.547339389727567571e-01 4.464429594911724602e-04
7.562301670562631140e-01 4.473047772229366567e-04
7.577293613486043578e-01 4.449139880933240267e-04
7.592315277301641130e-01 4.349490662796923050e-04
7.607366720929834569e-01 4.196881408550240801e-04
7.622448003407840122e-01 3.963742699192057575e-04
7.637559183889915948e-01 3.575327835818558459e-04
7.652700321647588622e-01 2.840420626452703481e-04
7.667871476069888503e-01 1.801569830023269994e-04
7.683072706663583995e-01 2.903109606995791375e-04
7.698304073053409136e-01 2.521959534310950135e-04
