# Wavelength (um) - Flux (W m-2 um-1)
3.499999999999999778e-01 2.176093227991298791e-10
3.506938601832851887e-01 2.561872062008466120e-10
3.513890959150102189e-01 3.029124919861342895e-10
3.520857099221416653e-01 3.599890864774169757e-10
3.527837049370521894e-01 4.299121871266124723e-10
3.534830836975311752e-01 5.154847128703961912e-10
3.541838489467957207e-01 6.201280359853040884e-10
3.548860034335010738e-01 7.478073634206261852e-10
3.555895499117517344e-01 9.036178545475925755e-10
3.562944911411119464e-01 1.093085529849963849e-09
3.570008298866167440e-01 1.322028600429869637e-09
3.577085689187827211e-01 1.597540342326609990e-09
3.584177110136189670e-01 1.927893030307414336e-09
3.591282589526377245e-01 2.324440380232741665e-09
3.598402155228656585e-01 2.796552514936879875e-09
3.605535835168544589e-01 3.356669808927535036e-09
3.612683657326919984e-01 4.019198543433608573e-09
3.619845649740132121e-01 4.804812362311471274e-09
3.627021840500111449e-01 5.728427243277504599e-09
3.634212257754479425e-01 6.811807680098547277e-09
3.641416929706658978e-01 8.078313492753343905e-09
3.648635884615984981e-01 9.559745758421970930e-09
3.655869150797815270e-01 1.127617359799363068e-08
3.663116756623641668e-01 1.325509375390170128e-08
3.670378730521201560e-01 1.553674713192096192e-08
3.677655100974589475e-01 1.814182692297264262e-08
3.684945896524366438e-01 2.109550551886814393e-08
3.692251145767675991e-01 2.443294219286999354e-08
3.699570877358354104e-01 2.817439492652654058e-08
3.706905120007041310e-01 3.233011220542589952e-08
3.714253902481295389e-01 3.692159503834328028e-08
3.721617253605705167e-01 4.195417964948290776e-08
3.728995202262002651e-01 4.741359358554699054e-08
3.736387777389177378e-01 5.329645066955203685e-08
3.743795007983588552e-01 5.957351105736504256e-08
3.751216923099078837e-01 6.620017206931879323e-08
3.758653551847090379e-01 7.317765018776290132e-08
3.766104923396776938e-01 8.030689654717387292e-08
3.773571066975117683e-01 8.756674420868471523e-08
3.781052011867035434e-01 9.484283915947938576e-08
3.788547787415506574e-01 1.019968748956422916e-07
3.796058423021680395e-01 1.088693699502812827e-07
3.803583948144992344e-01 1.153102370047330391e-07
3.811124392303280040e-01 1.211639633068450540e-07
3.818679785072897626e-01 1.262038259568590111e-07
3.826250156088835119e-01 1.303193771434979773e-07
3.833835535044831655e-01 1.333400139954900519e-07
3.841435951693493167e-01 1.351448452382608162e-07
3.849051435846408409e-01 1.356655572725824813e-07
3.856682017374267191e-01 1.348051474871070741e-07
3.864327726206975844e-01 1.326522815437729994e-07
3.871988592333776014e-01 1.292104717784282464e-07
3.879664645803361789e-01 1.246311157378487523e-07
3.887355916723996274e-01 1.190459912056804841e-07
3.895062435263633160e-01 1.126376983938871773e-07
3.902784231650031077e-01 1.056101560841495080e-07
3.910521336170875162e-01 9.814925305957871481e-08
3.918273779173893079e-01 9.045742841287128588e-08
3.926041591066976033e-01 8.269239486131316515e-08
3.933824802318299230e-01 7.499258642505895599e-08
3.941623443456437892e-01 6.747350733213605547e-08
3.949437545070488831e-01 6.019595572558903005e-08
3.957267137810192015e-01 5.324791202799915036e-08
3.965112252386047698e-01 4.658052781792878611e-08
3.972972919569439099e-01 4.030158041025922112e-08
3.980849170192751751e-01 3.485576122854012124e-08
3.988741035149496739e-01 2.980274938019115029e-08
3.996648545394428376e-01 2.532710063711375581e-08
4.004571731943668000e-01 2.150863014975033832e-08
4.012510625874825543e-01 1.799390085554612145e-08
4.020465258327120539e-01 1.429365891541159997e-08
4.028435660501505367e-01 9.707366993932456526e-09
4.036421863660785703e-01 4.112488051387593752e-09
4.044423899129745981e-01 4.487756409358791668e-10
4.052441798295269848e-01 3.374815231559284862e-09
4.060475592606462847e-01 1.091300761241187714e-08
4.068525313574780644e-01 1.935034789392637138e-08
4.076590992774144495e-01 2.815275082036703693e-08
4.084672661841073360e-01 3.817505979967030425e-08
4.092770352474802142e-01 5.066775763889578897e-08
4.100884096437408810e-01 6.658770379019327287e-08
4.109013925553938740e-01 8.691585454582042974e-08
4.117159871712527952e-01 1.126179422474192084e-07
4.125321966864530787e-01 1.443373564346264208e-07
4.133500243024642584e-01 1.835011440484303423e-07
4.141694732271026802e-01 2.307779882806227166e-07
4.149905466745440474e-01 2.875912540808911095e-07
4.158132478653361330e-01 3.554794603869684883e-07
4.166375800264111584e-01 4.351145090610672452e-07
4.174635463910987276e-01 5.298258384933926853e-07
4.182911501991381509e-01 6.395034093854941775e-07
4.191203946966917671e-01 7.658554513434937963e-07
4.199512831363568788e-01 9.114841975550090587e-07
4.207838187771793526e-01 1.076205778737221648e-06
4.216180048846655537e-01 1.261084987654205631e-06
4.224538447307958910e-01 1.467247393853186621e-06
4.232913415940371404e-01 1.694268122544660403e-06
4.241304987593556564e-01 1.942129174156622065e-06
4.249713195182299730e-01 2.210780585511353213e-06
4.258138071686639048e-01 2.498593197249128363e-06
4.266579650151993697e-01 2.804815567801740036e-06
4.275037963689294895e-01 3.127697216777055527e-06
4.283513045475113579e-01 3.467391061302875807e-06
4.292004928751793069e-01 3.819765453190342896e-06
4.300513646827577863e-01 4.185784158124870589e-06
4.309039233076744635e-01 4.561720540785139675e-06
4.317581720939732692e-01 4.946407318359994355e-06
4.326141143923275534e-01 5.333882659791994194e-06
4.334717535600533522e-01 5.736639604928144335e-06
4.343310929611222670e-01 6.136842102572870294e-06
4.351921359661750643e-01 6.543744207229464274e-06
4.360548859525344434e-01 6.950052107622875604e-06
4.369193463042185255e-01 7.356240120654431027e-06
4.377855204119542321e-01 7.760225714345463807e-06
4.386534116731903299e-01 8.148027111039457700e-06
4.395230234921110313e-01 8.507612044053317060e-06
4.403943592796489837e-01 8.892980046695762243e-06
4.412674224534991474e-01 9.194430499758502124e-06
4.421422164381316189e-01 9.538572906387316199e-06
4.430187446648055638e-01 9.405638996707862680e-06
4.438970105715824288e-01 1.022235614086091527e-05
4.447770176033394307e-01 1.045374344327410378e-05
4.456587692117831567e-01 1.073752950329401200e-05
4.465422688554630537e-01 1.095383847422884677e-05
4.474275199997848063e-01 1.121795258961608927e-05
4.483145261170245477e-01 1.148188557487408009e-05
4.492032906863416275e-01 1.168380751204854090e-05
4.500938171937928778e-01 1.185554839331731118e-05
4.509861091323460469e-01 1.208521157681243800e-05
4.518801700018936218e-01 1.215697737738349440e-05
4.527760033092663727e-01 1.221925364027117804e-05
4.536736125682472309e-01 1.229333176772393729e-05
4.545730012995851110e-01 1.226316351904449387e-05
4.554741730310086778e-01 1.220815199555676819e-05
4.563771312972400018e-01 1.212025063551202506e-05
4.572818796400087704e-01 1.200281467596281014e-05
4.581884216080659433e-01 1.185780396079318893e-05
4.590967607571977416e-01 1.168709651256768438e-05
4.600069006502395808e-01 1.149222756841199842e-05
4.609188448570899488e-01 1.127195079390617146e-05
4.618325969547246723e-01 1.101808069298121256e-05
4.627481605272105725e-01 1.068306497923299882e-05
4.636655391657200642e-01 9.692637050754949980e-06
4.645847364685444791e-01 6.607793053059487728e-06
4.655057560411089979e-01 9.887504529653348283e-06
4.664286014959861393e-01 9.797914233039844531e-06
4.673532764529103045e-01 9.580046067735353452e-06
4.682797845387918767e-01 9.338325487063765318e-06
4.692081293877314319e-01 9.024249886532683610e-06
4.701383146410339497e-01 8.772401806280759291e-06
4.710703439472231357e-01 8.526939168117057664e-06
4.720042209620557982e-01 8.269714731440307170e-06
4.729399493485361705e-01 8.009693375558855344e-06
4.738775327769301215e-01 7.770625920210491694e-06
4.748169749247795890e-01 7.551365697529952730e-06
4.757582794769174561e-01 7.348268069080717705e-06
4.767014501254810965e-01 7.159788906220724749e-06
4.776464905699279728e-01 6.994952968398985141e-06
4.785934045170490148e-01 6.851177734979893091e-06
4.795421956809841624e-01 6.734462283296840304e-06
4.804928677832361328e-01 6.637285318103777061e-06
4.814454245526856302e-01 6.565935107522043851e-06
4.823998697256054458e-01 6.515940419304044942e-06
4.833562070456756676e-01 6.485876116126922163e-06
4.843144402639977808e-01 6.469757286243927424e-06
4.852745731391099326e-01 6.461095894307503024e-06
4.862366094370011993e-01 6.496288136952525938e-06
4.872005529311266847e-01 6.525399216842018447e-06
4.881664074024222311e-01 6.580840122560477695e-06
4.891341766393191848e-01 6.618453917518666911e-06
4.901038644377592735e-01 6.691801196402465724e-06
4.910754746012093719e-01 6.757425229493383799e-06
4.920490109406770451e-01 6.826864369675555832e-06
4.930244772747244264e-01 6.898694090837407333e-06
4.940018774294842596e-01 6.972239512174726908e-06
4.949812152386740549e-01 7.047673740748431024e-06
4.959624945436119647e-01 7.118382656150247636e-06
4.969457191932307727e-01 7.188065270000282338e-06
4.979308930440943248e-01 7.225653489201354413e-06
4.989180199604112964e-01 7.273967575547118859e-06
4.999071038140513457e-01 7.334994620017529812e-06
5.008981484845598242e-01 7.357098975880364994e-06
5.018911578591733758e-01 7.257390717962035734e-06
5.028861358328344799e-01 7.230103546292161544e-06
5.038830863082074396e-01 6.711825826141773127e-06
5.048820131956934798e-01 7.344211308941784452e-06
5.058829204134459578e-01 7.415138468451675819e-06
5.068858118873857954e-01 7.500878014331412353e-06
5.078906915512167997e-01 7.441290190614947195e-06
5.088975633464413173e-01 7.548433596440717930e-06
5.099064312223754447e-01 7.600696245002976220e-06
5.109172991361647931e-01 7.794933692079056482e-06
5.119301710527995875e-01 7.861249365263970658e-06
5.129450509451307649e-01 7.939432871326129788e-06
5.139619427938850738e-01 8.051076744762063057e-06
5.149808505876810605e-01 8.140100463959034299e-06
5.160017783230443911e-01 8.200653537817941192e-06
5.170247300044235050e-01 8.271498088390906735e-06
5.180497096442059357e-01 8.324350420448497606e-06
5.190767212627332983e-01 8.374381872768644407e-06
5.201057688883173880e-01 8.430733609498639684e-06
5.211368565572560563e-01 8.479154681554897525e-06
5.221699883138488651e-01 8.531602191207090011e-06
5.232051682104131851e-01 8.582414873308166086e-06
5.242424003072996275e-01 8.630800591502867095e-06
5.252816886729083645e-01 8.704436726940820317e-06
5.263230373837054499e-01 8.779420555239438728e-06
5.273664505242375844e-01 8.854032725176826888e-06
5.284119321871496577e-01 8.936545805795452813e-06
5.294594864731995143e-01 9.030726770161337023e-06
5.305091174912749397e-01 9.124139272489209564e-06
5.315608293584090926e-01 9.242231789135295104e-06
5.326146261997972697e-01 9.368043582924054334e-06
5.336705121488125592e-01 9.501821797949985143e-06
5.347284913470226053e-01 9.640593728465925489e-06
5.357885679442050408e-01 9.782112271653605406e-06
5.368507460983646951e-01 9.927625949500884080e-06
5.379150299757492482e-01 1.007275892627813408e-05
5.389814237508658845e-01 1.022953036376658788e-05
5.400499316064977240e-01 1.028601875562604610e-05
5.411205577337194761e-01 1.026889128800241638e-05
5.421933063319153145e-01 1.064606984091947998e-05
5.432681816087936433e-01 1.085547225963163579e-05
5.443451877804054151e-01 1.111682631597215567e-05
5.454243290711588976e-01 1.136850066454331187e-05
5.465056097138375479e-01 1.146321721966575402e-05
5.475890339496158887e-01 1.181810962703324674e-05
5.486746060280766057e-01 1.209703099093968262e-05
5.497623302072268681e-01 1.233225252533593678e-05
5.508522107535150925e-01 1.263799744077441934e-05
5.519442519418479298e-01 1.288746615320659663e-05
5.530384580556066965e-01 1.318846547245510501e-05
5.541348333866644715e-01 1.346918328575799959e-05
5.552333822354027504e-01 1.372495347923856281e-05
5.563341089107282089e-01 1.398350367364820733e-05
5.574370177300899121e-01 1.422206448240680734e-05
5.585421130194961892e-01 1.444786970007894429e-05
5.596493991135309543e-01 1.466114707742252598e-05
5.607588803553721357e-01 1.485325871105381242e-05
5.618705610968067754e-01 1.504784497378977324e-05
5.629844456982502354e-01 1.520815618171593396e-05
5.641005385287614082e-01 1.535672487451906188e-05
5.652188439660609243e-01 1.547548292498440199e-05
5.663393663965482494e-01 1.551613368381293297e-05
5.674621102153183383e-01 1.539856377302526024e-05
5.685870798261795089e-01 1.483585543509841076e-05
5.697142796416703181e-01 1.514213833717705941e-05
5.708437140830771028e-01 1.543975940878325909e-05
5.719753875804510779e-01 1.509057549010903920e-05
5.731093045726258772e-01 1.493332234488806024e-05
5.742454695072350956e-01 1.463916267834481598e-05
5.753838868407292750e-01 1.441974302348118256e-05
5.765245610383941122e-01 1.403467355373339221e-05
5.776674965743670009e-01 1.338060188933753312e-05
5.788126979316554621e-01 1.292971355581995012e-05
5.799601696021545738e-01 1.226667176971432087e-05
5.811099160866638469e-01 1.126218730608480816e-05
5.822619418949059877e-01 1.032022329410262895e-05
5.834162515455436626e-01 9.197962183598104788e-06
5.845728495661978164e-01 7.988202233244607838e-06
5.857317404934651028e-01 6.566223105092026931e-06
5.868929288729358706e-01 4.988689711371309422e-06
5.880564192592117045e-01 2.894953920656994274e-06
5.892222162159238552e-01 5.959349198905271557e-07
5.903903243157504477e-01 2.335117437848748541e-06
5.915607481404348000e-01 5.248670898710323024e-06
5.927334922808035200e-01 7.773759222057882525e-06
5.939085613367841576e-01 1.069099669278818541e-05
5.950859599174235237e-01 1.279346579942349330e-05
5.962656926409057867e-01 1.598312528789940187e-05
5.974477641345700141e-01 1.991849031714070095e-05
5.986321790349292682e-01 2.318264430793014178e-05
5.998189419876881479e-01 2.720957107841624197e-05
6.010080576477609959e-01 3.239607698545154859e-05
6.021995306792905511e-01 3.748578722604992955e-05
6.033933657556659336e-01 4.253300195217716998e-05
6.045895675595410745e-01 4.819538445205214520e-05
6.057881407828531461e-01 5.495167140031575846e-05
6.069890901268405470e-01 6.168348343617632975e-05
6.081924203020619979e-01 6.871231834745515654e-05
6.093981360284147497e-01 7.586828191307843857e-05
6.106062420351527908e-01 8.397118252109632669e-05
6.118167430609059432e-01 9.193974427393088579e-05
6.130296438536979586e-01 1.007153137044585015e-04
6.142449491709652820e-01 1.098958278871181305e-04
6.154626637795761468e-01 1.196035956890710274e-04
6.166827924558484497e-01 1.298593266408467944e-04
6.179053399855690687e-01 1.408052515708398480e-04
6.191303111640127366e-01 1.524867260451389847e-04
6.203577107959604708e-01 1.646728333660214664e-04
6.215875436957183364e-01 1.778149600366558741e-04
6.228198146871369856e-01 1.915328189587451203e-04
6.240545286036297545e-01 2.060293853936580289e-04
6.252916902881922034e-01 2.192648550661423961e-04
6.265313045934209901e-01 2.318391358838738558e-04
6.277733763815327439e-01 2.488158957246663092e-04
6.290179105243831614e-01 2.715284983047021815e-04
6.302649119034864356e-01 2.940928641770863654e-04
6.315143854100337961e-01 3.128073285057979378e-04
6.327663359449133829e-01 3.311125403547021152e-04
6.340207684187288972e-01 3.566131604468812948e-04
6.352776877518192533e-01 3.842500606219348153e-04
6.365370988742777847e-01 4.086965055521130899e-04
6.377990067259713403e-01 4.371911380991807682e-04
6.390634162565598242e-01 4.624810931882274720e-04
6.403303324255159579e-01 4.969559075314682571e-04
6.415997602021441537e-01 5.267344602589196833e-04
6.428717045656001661e-01 5.650452775321449655e-04
6.441461705049108533e-01 5.752107009953246570e-04
6.454231630189937174e-01 5.896403487444027130e-04
6.467026871166762225e-01 5.635148762934233347e-04
6.479847478167156671e-01 6.252968707477270802e-04
6.492693501478188356e-01 7.075671027618441562e-04
6.505564991486617599e-01 8.020556072493359705e-04
6.518461998679093705e-01 7.290147283988069249e-04
6.531384573642354807e-01 8.916914443981914344e-04
6.544332767063422152e-01 9.628132127638956662e-04
6.557306629729804381e-01 9.763273593865812909e-04
6.570306212529695156e-01 1.029569281673694495e-03
6.583331566452168548e-01 1.138044807805837144e-03
6.596382742587384440e-01 1.267502897711709434e-03
6.609459792126787248e-01 1.331738731855263737e-03
6.622562766363304654e-01 1.469352529005234958e-03
6.635691716691552999e-01 1.551135759737149204e-03
6.648846694608032681e-01 1.692072768886154809e-03
6.662027751711334655e-01 1.815572953811018337e-03
6.675234939702344716e-01 1.950974722505640670e-03
6.688468310384441118e-01 2.098465872464477279e-03
6.701727915663699964e-01 2.251886684488895070e-03
6.715013807549099489e-01 2.408621903416271158e-03
6.728326038152724342e-01 2.564892973646569225e-03
6.741664659689967642e-01 2.747171160644692935e-03
6.755029724479738595e-01 2.921200641467899296e-03
6.768421284944665661e-01 3.103305610008186104e-03
6.781839393611303057e-01 3.288346869412070266e-03
6.795284103110337259e-01 3.484947587247836688e-03
6.808755466176791282e-01 3.682849296643377589e-03
6.822253535650235623e-01 3.867863250214692745e-03
6.835778364474991431e-01 4.092176268139734695e-03
6.849330005700339230e-01 4.307582008268911501e-03
6.862908512480728751e-01 4.530129303373170262e-03
6.876513938075984322e-01 4.773727378435841870e-03
6.890146335851516923e-01 4.948947555630602707e-03
6.903805759278532905e-01 4.863992722341701352e-03
6.917492261934242714e-01 4.212253118556091164e-03
6.931205897502070723e-01 3.598377001335594221e-03
6.944946719771865062e-01 4.209378533855186351e-03
6.958714782640114116e-01 4.837901747915066171e-03
6.972510140110148580e-01 5.637513838480572546e-03
6.986332846292361287e-01 5.519802111597032698e-03
7.000182955404418150e-01 5.156680393190339953e-03
7.014060521771465773e-01 5.297950536004522072e-03
7.027965599826351273e-01 5.367327479110216640e-03
7.041898244109829896e-01 5.396256815506437869e-03
7.055858509270783729e-01 5.579820421517402672e-03
7.069846450066432642e-01 5.738246103464649840e-03
7.083862121362551889e-01 5.908610064966702928e-03
7.097905578133681948e-01 5.710399540877580254e-03
7.111976875463352776e-01 5.800624065671974687e-03
7.126076068544293651e-01 5.659140128177406193e-03
7.140203212678648548e-01 5.617600171878005255e-03
7.154358363278199295e-01 4.793220540869274661e-03
7.168541575864576521e-01 2.557326902539181369e-03
7.182752906069482801e-01 2.834768527443381168e-03
7.196992409634904719e-01 3.158108496922086561e-03
7.211260142413337126e-01 3.764649286018959071e-03
7.225556160368000747e-01 4.449273120113007331e-03
7.239880519573058670e-01 3.774102180195602028e-03
7.254233276213841730e-01 3.825742840870538161e-03
7.268614486587061663e-01 3.790561006724391460e-03
7.283024207101040925e-01 4.285298473306877950e-03
7.297462494275925859e-01 3.885781930331331981e-03
7.311929404743913175e-01 3.459480416677166749e-03
7.326424995249467553e-01 4.412155985687714679e-03
7.340949322649550357e-01 5.049575473207199711e-03
7.355502443913839450e-01 4.761178876382415014e-03
7.370084416124950133e-01 4.878778313851293326e-03
7.384695296478663851e-01 5.193864507485233817e-03
7.399335142284149125e-01 5.333356195779470794e-03
7.414004010964189151e-01 5.655201676290771973e-03
7.428701960055402731e-01 6.076791601883253097e-03
7.443429047208474092e-01 5.973107132071027794e-03
7.458185330188378259e-01 6.343245133594447097e-03
7.472970866874605322e-01 6.575945320663293368e-03
7.487785715261390251e-01 6.524237043394614730e-03
7.502629933457937161e-01 6.613458404338668460e-03
7.517503579688651349e-01 6.570173112705122477e-03
7.532406712293365780e-01 6.502404631681945289e-03
7.547339389727567571e-01 6.393853668095638397e-03
7.562301670562631140e-01 6.220364177718138744e-03
7.577293613486043578e-01 5.999726640242845216e-03
7.592315277301641130e-01 5.692543695092807526e-03
7.607366720929834569e-01 5.325534605084207389e-03
7.622448003407840122e-01 4.878918986635154102e-03
7.637559183889915948e-01 4.290438111413484926e-03
7.652700321647588622e-01 3.218317509068742942e-03
7.667871476069888503e-01 1.396529409367967779e-03
7.683072706663583995e-01 3.277929040832147731e-03
7.698304073053409136e-01 2.532780171934733478e-03
