# Wavelength (um) - Flux (W m-2 um-1)
3.499999999999999778e-01 8.493220253229943338e-08
3.506938601832851887e-01 1.096935294402790719e-07
3.513890959150102189e-01 1.406098800964663601e-07
3.520857099221416653e-01 1.791038579801102383e-07
3.527837049370521894e-01 2.267441441269833429e-07
3.534830836975311752e-01 2.852583100786410918e-07
3.541838489467957207e-01 3.567211963468897751e-07
3.548860034335010738e-01 4.435081700173324228e-07
3.555895499117517344e-01 5.486407920448138487e-07
3.562944911411119464e-01 6.752847769059692445e-07
3.570008298866167440e-01 8.266267276705240097e-07
3.577085689187827211e-01 1.006442949930006027e-06
3.584177110136189670e-01 1.218902907209937062e-06
3.591282589526377245e-01 1.469505027618496253e-06
3.598402155228656585e-01 1.761987494822745104e-06
3.605535835168544589e-01 2.101151503281863598e-06
3.612683657326919984e-01 2.491976362598289059e-06
3.619845649740132121e-01 2.941343166776671822e-06
3.627021840500111449e-01 3.452344738780658007e-06
3.634212257754479425e-01 4.029846547244487078e-06
3.641416929706658978e-01 4.678886657113210599e-06
3.648635884615984981e-01 5.404626720292532400e-06
3.655869150797815270e-01 6.208664811768906749e-06
3.663116756623641668e-01 7.093998065305525887e-06
3.670378730521201560e-01 8.065859043168181687e-06
3.677655100974589475e-01 9.123515709661475238e-06
3.684945896524366438e-01 1.026741781315409168e-05
3.692251145767675991e-01 1.149995414909005953e-05
3.699570877358354104e-01 1.282003184476711621e-05
3.706905120007041310e-01 1.422481564294602605e-05
3.714253902481295389e-01 1.571421885220856114e-05
3.721617253605705167e-01 1.728548808564105127e-05
3.728995202262002651e-01 1.893326354255356710e-05
3.736387777389177378e-01 2.065510627035788827e-05
3.743795007983588552e-01 2.244523630487327512e-05
3.751216923099078837e-01 2.429568876877799476e-05
3.758653551847090379e-01 2.620026103144234124e-05
3.766104923396776938e-01 2.814703512689837561e-05
3.773571066975117683e-01 3.012702558349765968e-05
3.781052011867035434e-01 3.212940432554720841e-05
3.788547787415506574e-01 3.413660971408195692e-05
3.796058423021680395e-01 3.612770137998601300e-05
3.803583948144992344e-01 3.808595848685904011e-05
3.811124392303280040e-01 3.998836818587356453e-05
3.818679785072897626e-01 4.180173267802139784e-05
3.826250156088835119e-01 4.350360440349971522e-05
3.833835535044831655e-01 4.506269138852101613e-05
3.841435951693493167e-01 4.644032259286952048e-05
3.849051435846408409e-01 4.760678766336599985e-05
3.856682017374267191e-01 4.851501014540867513e-05
3.864327726206975844e-01 4.914617060855470216e-05
3.871988592333776014e-01 4.945556755009579419e-05
3.879664645803361789e-01 4.942520609809795403e-05
3.887355916723996274e-01 4.902726569840738444e-05
3.895062435263633160e-01 4.824446877586317339e-05
3.902784231650031077e-01 4.707358816937109867e-05
3.910521336170875162e-01 4.550226161190950279e-05
3.918273779173893079e-01 4.355272084852016294e-05
3.926041591066976033e-01 4.122306366391147192e-05
3.933824802318299230e-01 3.855785220360780216e-05
3.941623443456437892e-01 3.556847577853769742e-05
3.949437545070488831e-01 3.231423850346303495e-05
3.957267137810192015e-01 2.882448171242767842e-05
3.965112252386047698e-01 2.515735394960762631e-05
3.972972919569439099e-01 2.136561491295048016e-05
3.980849170192751751e-01 1.759364183209385010e-05
3.988741035149496739e-01 1.384690208270536083e-05
3.996648545394428376e-01 1.025872685119469796e-05
4.004571731943668000e-01 7.003914407289788010e-06
4.012510625874825543e-01 4.243510382732564784e-06
4.020465258327120539e-01 2.233308490553520738e-06
4.028435660501505367e-01 1.025749240200295637e-06
4.036421863660785703e-01 3.191014550047529956e-07
4.044423899129745981e-01 1.362054765944214980e-08
4.052441798295269848e-01 2.301074224920892758e-07
4.060475592606462847e-01 1.067671683632890996e-06
4.068525313574780644e-01 2.639251191395566456e-06
4.076590992774144495e-01 5.767811822362351346e-06
4.084672661841073360e-01 1.075625352630045785e-05
4.092770352474802142e-01 1.781583634640208409e-05
4.100884096437408810e-01 2.689695446062624504e-05
4.109013925553938740e-01 3.806450157153127710e-05
4.117159871712527952e-01 5.139991980872876307e-05
4.125321966864530787e-01 6.686582232711702227e-05
4.133500243024642584e-01 8.465583552429168919e-05
4.141694732271026802e-01 1.046783565473295870e-04
4.149905466745440474e-01 1.270111016336252971e-04
4.158132478653361330e-01 1.516920577049575222e-04
4.166375800264111584e-01 1.785802224357100026e-04
4.174635463910987276e-01 2.078710932736177138e-04
4.182911501991381509e-01 2.393009601063146715e-04
4.191203946966917671e-01 2.728218946965736864e-04
4.199512831363568788e-01 3.084639186460426765e-04
4.207838187771793526e-01 3.459849646736391738e-04
4.216180048846655537e-01 3.852813705528573460e-04
4.224538447307958910e-01 4.262800106106036683e-04
4.232913415940371404e-01 4.688060083524766392e-04
4.241304987593556564e-01 5.127440294265907033e-04
4.249713195182299730e-01 5.580238958022417858e-04
4.258138071686639048e-01 6.044802790573783466e-04
4.266579650151993697e-01 6.520621763420710645e-04
4.275037963689294895e-01 7.006473953445058189e-04
4.283513045475113579e-01 7.503616354655633699e-04
4.292004928751793069e-01 8.009388251047147578e-04
4.300513646827577863e-01 8.525396039496498709e-04
4.309039233076744635e-01 9.050416137817229130e-04
4.317581720939732692e-01 9.584647388126461701e-04
4.326141143923275534e-01 1.012524256385074518e-03
4.334717535600533522e-01 1.068192407163702203e-03
4.343310929611222670e-01 1.124369627775196907e-03
4.351921359661750643e-01 1.181762102078529704e-03
4.360548859525344434e-01 1.240025618142981314e-03
4.369193463042185255e-01 1.299248248151978159e-03
4.377855204119542321e-01 1.359376259765135864e-03
4.386534116731903299e-01 1.419670816211429003e-03
4.395230234921110313e-01 1.479415533162383150e-03
4.403943592796489837e-01 1.541863455478594382e-03
4.412674224534991474e-01 1.600363181658114812e-03
4.421422164381316189e-01 1.662434115951388208e-03
4.430187446648055638e-01 1.696256844668976842e-03
4.438970105715824288e-01 1.789391668127988250e-03
4.447770176033394307e-01 1.847533714355231813e-03
4.456587692117831567e-01 1.908886425524009738e-03
4.465422688554630537e-01 1.966861358416600956e-03
4.474275199997848063e-01 2.027889414892446521e-03
4.483145261170245477e-01 2.088538331904051578e-03
4.492032906863416275e-01 2.144525393704712485e-03
4.500938171937928778e-01 2.197767509691457219e-03
4.509861091323460469e-01 2.254529333895069487e-03
4.518801700018936218e-01 2.298231799533734330e-03
4.527760033092663727e-01 2.339331014851940907e-03
4.536736125682472309e-01 2.378811473938021847e-03
4.545730012995851110e-01 2.407216199180926310e-03
4.554741730310086778e-01 2.430221043677346232e-03
4.563771312972400018e-01 2.446265262369945633e-03
4.572818796400087704e-01 2.455335199481242184e-03
4.581884216080659433e-01 2.457030981095002353e-03
4.590967607571977416e-01 2.451143867927909042e-03
4.600069006502395808e-01 2.437226076918656142e-03
4.609188448570899488e-01 2.414687093408145798e-03
4.618325969547246723e-01 2.382355021818229144e-03
4.627481605272105725e-01 2.333377989632853724e-03
4.636655391657200642e-01 2.179731113148188591e-03
4.645847364685444791e-01 1.561067407787701360e-03
4.655057560411089979e-01 2.181829285497820410e-03
4.664286014959861393e-01 2.148973203947507089e-03
4.673532764529103045e-01 2.092919909401884035e-03
4.682797845387918767e-01 2.028277047316913613e-03
4.692081293877314319e-01 1.954048345453695927e-03
4.701383146410339497e-01 1.880119890218009742e-03
4.710703439472231357e-01 1.803229195037361421e-03
4.720042209620557982e-01 1.722846835847655078e-03
4.729399493485361705e-01 1.639885638452831832e-03
4.738775327769301215e-01 1.556369042408524547e-03
4.748169749247795890e-01 1.472802786844327810e-03
4.757582794769174561e-01 1.389355653583712862e-03
4.767014501254810965e-01 1.306591748190437299e-03
4.776464905699279728e-01 1.225394277904778492e-03
4.785934045170490148e-01 1.146266841492086033e-03
4.795421956809841624e-01 1.070033047626922336e-03
4.804928677832361328e-01 9.968779516394135013e-04
4.814454245526856302e-01 9.276027907560358736e-04
4.823998697256054458e-01 8.624382986646219901e-04
4.833562070456756676e-01 8.017254534837831709e-04
4.843144402639977808e-01 7.455934755443273474e-04
4.852745731391099326e-01 6.939813129691864641e-04
4.862366094370011993e-01 6.482372818269084569e-04
4.872005529311266847e-01 6.067835599044629161e-04
4.881664074024222311e-01 5.704094548386160098e-04
4.891341766393191848e-01 5.379348122673262116e-04
4.901038644377592735e-01 5.103237296474088169e-04
4.910754746012093719e-01 4.862675172570335631e-04
4.920490109406770451e-01 4.656787627990155985e-04
4.930244772747244264e-01 4.481184915065676046e-04
4.940018774294842596e-01 4.331610602409544726e-04
4.949812152386740549e-01 4.203959264336978256e-04
4.959624945436119647e-01 4.093365741264131307e-04
4.969457191932307727e-01 3.996660762148272197e-04
4.979308930440943248e-01 3.906151364672323439e-04
4.989180199604112964e-01 3.825398479290633260e-04
4.999071038140513457e-01 3.752035438695176784e-04
5.008981484845598242e-01 3.673406855565016665e-04
5.018911578591733758e-01 3.581871538209914713e-04
5.028861358328344799e-01 3.501318229941409346e-04
5.038830863082074396e-01 3.349175994325734622e-04
5.048820131956934798e-01 3.370912089030378552e-04
5.058829204134459578e-01 3.307732864354941647e-04
5.068858118873857954e-01 3.248220985244560646e-04
5.078906915512167997e-01 3.172681052692137007e-04
5.088975633464413173e-01 3.118737997035364107e-04
5.099064312223754447e-01 3.061472888650123626e-04
5.109172991361647931e-01 3.021420699044329180e-04
5.119301710527995875e-01 2.968126934961693754e-04
5.129450509451307649e-01 2.917921197183581390e-04
5.139619427938850738e-01 2.873806262052492244e-04
5.149808505876810605e-01 2.829258188902432185e-04
5.160017783230443911e-01 2.783908858879722420e-04
5.170247300044235050e-01 2.741909399941038243e-04
5.180497096442059357e-01 2.700974040010592362e-04
5.190767212627332983e-01 2.662544235695918924e-04
5.201057688883173880e-01 2.627287215839260704e-04
5.211368565572560563e-01 2.594195944936811076e-04
5.221699883138488651e-01 2.564158322085086658e-04
5.232051682104131851e-01 2.536652984692561240e-04
5.242424003072996275e-01 2.511591523936268370e-04
5.252816886729083645e-01 2.490849520093801309e-04
5.263230373837054499e-01 2.472596370053225666e-04
5.273664505242375844e-01 2.456665686554841536e-04
5.284119321871496577e-01 2.443377075820751419e-04
5.294594864731995143e-01 2.432912288849950759e-04
5.305091174912749397e-01 2.424156216951573795e-04
5.315608293584090926e-01 2.418671464038820123e-04
5.326146261997972697e-01 2.415093135985303305e-04
5.336705121488125592e-01 2.413232241898796259e-04
5.347284913470226053e-01 2.412682197684891546e-04
5.357885679442050408e-01 2.413090608229482843e-04
5.368507460983646951e-01 2.414233557636857863e-04
5.379150299757492482e-01 2.415793288763801346e-04
5.389814237508658845e-01 2.418063756067609263e-04
5.400499316064977240e-01 2.414185753126912566e-04
5.411205577337194761e-01 2.404868120505075809e-04
5.421933063319153145e-01 2.419609645757861817e-04
5.432681816087936433e-01 2.423156684477526619e-04
5.443451877804054151e-01 2.428708824848789386e-04
5.454243290711588976e-01 2.431980316137946152e-04
5.465056097138375479e-01 2.425278273232630156e-04
5.475890339496158887e-01 2.431643936694242937e-04
5.486746060280766057e-01 2.431844858555533479e-04
5.497623302072268681e-01 2.428039275779904501e-04
5.508522107535150925e-01 2.425673391764557850e-04
5.519442519418479298e-01 2.418532430832076054e-04
5.530384580556066965e-01 2.411738290183323790e-04
5.541348333866644715e-01 2.401814491941757891e-04
5.552333822354027504e-01 2.388611347974047537e-04
5.563341089107282089e-01 2.373586390329635487e-04
5.574370177300899121e-01 2.355623837314937703e-04
5.585421130194961892e-01 2.334897933968474882e-04
5.596493991135309543e-01 2.311688102410269612e-04
5.607588803553721357e-01 2.285651718798571263e-04
5.618705610968067754e-01 2.257784542413770080e-04
5.629844456982502354e-01 2.226737624768374739e-04
5.641005385287614082e-01 2.193322565267784503e-04
5.652188439660609243e-01 2.157094370831457635e-04
5.663393663965482494e-01 2.116535479848512767e-04
5.674621102153183383e-01 2.068235703535244955e-04
5.685870798261795089e-01 2.000765818093888475e-04
5.697142796416703181e-01 1.967183200436621138e-04
5.708437140830771028e-01 1.930818046535063453e-04
5.719753875804510779e-01 1.869713240852120860e-04
5.731093045726258772e-01 1.814754961125155503e-04
5.742454695072350956e-01 1.754595494494323379e-04
5.753838868407292750e-01 1.696646779058030060e-04
5.765245610383941122e-01 1.632427481004484441e-04
5.776674965743670009e-01 1.559293824069293009e-04
5.788126979316554621e-01 1.492185962336656636e-04
5.799601696021545738e-01 1.416937990828636535e-04
5.811099160866638469e-01 1.329972271912532649e-04
5.822619418949059877e-01 1.240629676648813894e-04
5.834162515455436626e-01 1.138869148046408393e-04
5.845728495661978164e-01 1.018896909333558983e-04
5.857317404934651028e-01 8.629227081627444172e-05
5.868929288729358706e-01 6.476946784122516781e-05
5.880564192592117045e-01 3.090256232246775433e-05
5.892222162159238552e-01 4.698274133293198397e-06
5.903903243157504477e-01 2.183113892830505621e-05
5.915607481404348000e-01 6.803678043396820712e-05
5.927334922808035200e-01 1.051005898690358931e-04
5.939085613367841576e-01 1.397500335838892048e-04
5.950859599174235237e-01 1.682514933451431248e-04
5.962656926409057867e-01 2.017186398927679324e-04
5.974477641345700141e-01 2.393442699360616530e-04
5.986321790349292682e-01 2.766207815903852854e-04
5.998189419876881479e-01 3.186429218876931399e-04
6.010080576477609959e-01 3.683492845712067884e-04
6.021995306792905511e-01 4.197477133182341696e-04
6.033933657556659336e-01 4.750495324133862307e-04
6.045895675595410745e-01 5.358531613475632201e-04
6.057881407828531461e-01 6.048263369381589455e-04
6.069890901268405470e-01 6.779098301639819137e-04
6.081924203020619979e-01 7.569769193420916283e-04
6.093981360284147497e-01 8.420375403437350493e-04
6.106062420351527908e-01 9.356086650758280599e-04
6.118167430609059432e-01 1.035249006601233470e-03
6.130296438536979586e-01 1.144202910401128813e-03
6.142449491709652820e-01 1.261286746424784529e-03
6.154626637795761468e-01 1.388352422648887492e-03
6.166827924558484497e-01 1.524889788531782813e-03
6.179053399855690687e-01 1.672608144935153196e-03
6.191303111640127366e-01 1.832263112369981366e-03
6.203577107959604708e-01 2.002903111898035864e-03
6.215875436957183364e-01 2.188358589601923331e-03
6.228198146871369856e-01 2.386354658210005416e-03
6.240545286036297545e-01 2.598963503115592731e-03
6.252916902881922034e-01 2.820290670322888379e-03
6.265313045934209901e-01 3.050041148751791997e-03
6.277733763815327439e-01 3.311433596455760128e-03
6.290179105243831614e-01 3.609637849290641461e-03
6.302649119034864356e-01 3.923489681713496040e-03
6.315143854100337961e-01 4.238879498851049962e-03
6.327663359449133829e-01 4.569425892112005151e-03
6.340207684187288972e-01 4.947555819073089049e-03
6.352776877518192533e-01 5.351594171994025241e-03
6.365370988742777847e-01 5.765191175602114686e-03
6.377990067259713403e-01 6.215371397387392874e-03
6.390634162565598242e-01 6.676332087813983615e-03
6.403303324255159579e-01 7.196585340877253642e-03
6.415997602021441537e-01 7.723272409287615728e-03
6.428717045656001661e-01 8.308992212346285808e-03
6.441461705049108533e-01 8.786018266682901062e-03
6.454231630189937174e-01 9.287212209284592679e-03
6.467026871166762225e-01 9.529174347320732569e-03
6.479847478167156671e-01 1.035095801982791400e-02
6.492693501478188356e-01 1.135345908653395339e-02
6.505564991486617599e-01 1.247458105782577563e-02
6.518461998679093705e-01 1.244754890053443273e-02
6.531384573642354807e-01 1.414159006717864535e-02
6.544332767063422152e-01 1.516308632287108500e-02
6.557306629729804381e-01 1.591076871501247506e-02
6.570306212529695156e-01 1.692713508468596251e-02
6.583331566452168548e-01 1.830003195499192714e-02
6.596382742587384440e-01 1.989350360167035578e-02
6.609459792126787248e-01 2.108210512796569389e-02
6.622562766363304654e-01 2.283942372563018547e-02
6.635691716691552999e-01 2.424612057490150435e-02
6.648846694608032681e-01 2.610491262997774800e-02
6.662027751711334655e-01 2.789180214362241630e-02
6.675234939702344716e-01 2.980915753205455598e-02
6.688468310384441118e-01 3.186618919826217367e-02
6.701727915663699964e-01 3.401878262072713377e-02
6.715013807549099489e-01 3.626740343411201384e-02
6.728326038152724342e-01 3.859639974861243938e-02
6.741664659689967642e-01 4.113990732281084389e-02
6.755029724479738595e-01 4.373627989376197012e-02
6.768421284944665661e-01 4.646469142927229373e-02
6.781839393611303057e-01 4.930033236834246296e-02
6.795284103110337259e-01 5.228153474699947373e-02
6.808755466176791282e-01 5.536862269945188458e-02
6.822253535650235623e-01 5.848487444227022658e-02
6.835778364474991431e-01 6.186646565055522323e-02
6.849330005700339230e-01 6.527163074606578963e-02
6.862908512480728751e-01 6.878292271689548376e-02
6.876513938075984322e-01 7.241951081040587379e-02
6.890146335851516923e-01 7.579240372113274504e-02
6.903805759278532905e-01 7.752041430204080485e-02
6.917492261934242714e-01 7.459651816600623708e-02
6.931205897502070723e-01 7.069895660088523770e-02
6.944946719771865062e-01 7.750626094836618463e-02
6.958714782640114116e-01 8.478244536994747338e-02
6.972510140110148580e-01 9.322039423708633477e-02
6.986332846292361287e-01 9.371510466541085882e-02
7.000182955404418150e-01 9.211033136714068259e-02
7.014060521771465773e-01 9.461516948621986889e-02
7.027965599826351273e-01 9.579937085860490420e-02
7.041898244109829896e-01 9.688582944832585531e-02
7.055858509270783729e-01 9.905377716333521598e-02
7.069846450066432642e-01 1.007651365746912442e-01
7.083862121362551889e-01 1.016897045525296944e-01
7.097905578133681948e-01 1.006783970109605408e-01
7.111976875463352776e-01 1.006362204973329233e-01
7.126076068544293651e-01 9.892013200821667129e-02
7.140203212678648548e-01 9.794849847517680952e-02
7.154358363278199295e-01 8.827950377789084424e-02
7.168541575864576521e-01 6.054252862647824945e-02
7.182752906069482801e-01 6.356214022663680963e-02
7.196992409634904719e-01 6.862451966651580970e-02
7.211260142413337126e-01 7.506717231963346004e-02
7.225556160368000747e-01 7.956960621523767596e-02
7.239880519573058670e-01 7.146571103031912342e-02
7.254233276213841730e-01 6.952125150303387069e-02
7.268614486587061663e-01 6.804788489509698557e-02
7.283024207101040925e-01 7.115073302159814761e-02
7.297462494275925859e-01 6.591627097152867598e-02
7.311929404743913175e-01 6.121955785824735596e-02
7.326424995249467553e-01 6.705573052912544574e-02
7.340949322649550357e-01 7.065246793371428302e-02
7.355502443913839450e-01 6.699477585305434191e-02
7.370084416124950133e-01 6.690060524486945992e-02
7.384695296478663851e-01 6.682143335751135338e-02
7.399335142284149125e-01 6.599499662090750618e-02
7.414004010964189151e-01 6.596140516846046853e-02
7.428701960055402731e-01 6.652995207193683480e-02
7.443429047208474092e-01 6.424139485410379491e-02
7.458185330188378259e-01 6.396955969871007119e-02
7.472970866874605322e-01 6.278051304369762498e-02
7.487785715261390251e-01 6.040969184395508090e-02
7.502629933457937161e-01 5.838509792490396283e-02
7.517503579688651349e-01 5.585469139460511739e-02
7.532406712293365780e-01 5.340427892207529059e-02
7.547339389727567571e-01 5.081105888552987782e-02
7.562301670562631140e-01 4.806397017903811519e-02
7.577293613486043578e-01 4.520982422163638548e-02
7.592315277301641130e-01 4.214583708358149439e-02
7.607366720929834569e-01 3.885391635437808466e-02
7.622448003407840122e-01 3.512071342496660142e-02
7.637559183889915948e-01 2.988864789551409079e-02
7.652700321647588622e-01 1.898913796487532168e-02
7.667871476069888503e-01 5.703243110690916703e-03
7.683072706663583995e-01 1.818072896800828828e-02
7.698304073053409136e-01 1.261424769180985103e-02
