# Wavelength (um) - Flux (W m-2 um-1)
3.499999999999999778e-01 1.826109418153532442e-08
3.506938601832851887e-01 2.364361524224593989e-08
3.513890959150102189e-01 3.054052600614605428e-08
3.520857099221416653e-01 3.936395200615126466e-08
3.527837049370521894e-01 5.059159001360454258e-08
3.534830836975311752e-01 6.477285902547874951e-08
3.541838489467957207e-01 8.259301715793538034e-08
3.548860034335010738e-01 1.048770189405582944e-07
3.555895499117517344e-01 1.327217932504738686e-07
3.562944911411119464e-01 1.673846408202655984e-07
3.570008298866167440e-01 2.102693610535357920e-07
3.577085689187827211e-01 2.631586334550320811e-07
3.584177110136189670e-01 3.282300852025521126e-07
3.591282589526377245e-01 4.085695543405174971e-07
3.598402155228656585e-01 5.070397269923192988e-07
3.605535835168544589e-01 6.275097762091443132e-07
3.612683657326919984e-01 7.747256645589045230e-07
3.619845649740132121e-01 9.557127956792595966e-07
3.627021840500111449e-01 1.176729877480424124e-06
3.634212257754479425e-01 1.446624473636045927e-06
3.641416929706658978e-01 1.776610394252281006e-06
3.648635884615984981e-01 2.181882672979499641e-06
3.655869150797815270e-01 2.676485322138392933e-06
3.663116756623641668e-01 3.279412357603472999e-06
3.670378730521201560e-01 4.018565736933161119e-06
3.677655100974589475e-01 4.917312645927675927e-06
3.684945896524366438e-01 6.004512307435129854e-06
3.692251145767675991e-01 7.319386781863148570e-06
3.699570877358354104e-01 8.897670448464125678e-06
3.706905120007041310e-01 1.077087198631635780e-05
3.714253902481295389e-01 1.298171419273039012e-05
3.721617253605705167e-01 1.556292516520482296e-05
3.728995202262002651e-01 1.852849663022450988e-05
3.736387777389177378e-01 2.189905554470307185e-05
3.743795007983588552e-01 2.566501549113413136e-05
3.751216923099078837e-01 2.978508684814027904e-05
3.758653551847090379e-01 3.421119432917841521e-05
3.766104923396776938e-01 3.883135948300326897e-05
3.773571066975117683e-01 4.353388432011982205e-05
3.781052011867035434e-01 4.816236592566586428e-05
3.788547787415506574e-01 5.252832071891657588e-05
3.796058423021680395e-01 5.641134027779424255e-05
3.803583948144992344e-01 5.962861962323469844e-05
3.811124392303280040e-01 6.202506820287987050e-05
3.818679785072897626e-01 6.339089449290754728e-05
3.826250156088835119e-01 6.371148985709560180e-05
3.833835535044831655e-01 6.294471048150082008e-05
3.841435951693493167e-01 6.115276808225845356e-05
3.849051435846408409e-01 5.845304401908669952e-05
3.856682017374267191e-01 5.498071000347545172e-05
3.864327726206975844e-01 5.097673611395516538e-05
3.871988592333776014e-01 4.662908923209448185e-05
3.879664645803361789e-01 4.214878038471519942e-05
3.887355916723996274e-01 3.770401743204285298e-05
3.895062435263633160e-01 3.343264569548087600e-05
3.902784231650031077e-01 2.942444331246757433e-05
3.910521336170875162e-01 2.574391571661305191e-05
3.918273779173893079e-01 2.239829922646758323e-05
3.926041591066976033e-01 1.939932678282371654e-05
3.933824802318299230e-01 1.670357631723324746e-05
3.941623443456437892e-01 1.429721209231987471e-05
3.949437545070488831e-01 1.212429296240334078e-05
3.957267137810192015e-01 1.016899485516725432e-05
3.965112252386047698e-01 8.381639047098268753e-06
3.972972919569439099e-01 6.758058215896974304e-06
3.980849170192751751e-01 5.315206109568393393e-06
3.988741035149496739e-01 4.014483582612845499e-06
3.996648545394428376e-01 2.872246735362935005e-06
4.004571731943668000e-01 1.925933696419923256e-06
4.012510625874825543e-01 1.185900218668727319e-06
4.020465258327120539e-01 6.802266134406645955e-07
4.028435660501505367e-01 3.596058921367411902e-07
4.036421863660785703e-01 1.245798487104975615e-07
4.044423899129745981e-01 7.306809638825860515e-09
4.052441798295269848e-01 9.446190986334775790e-08
4.060475592606462847e-01 3.886493905438887362e-07
4.068525313574780644e-01 8.520786311425757101e-07
4.076590992774144495e-01 1.697414715992873129e-06
4.084672661841073360e-01 3.103875056430943030e-06
4.092770352474802142e-01 5.254525402736292573e-06
4.100884096437408810e-01 8.249328064020719376e-06
4.109013925553938740e-01 1.224820166647983803e-05
4.117159871712527952e-01 1.745603226551062012e-05
4.125321966864530787e-01 2.404894598509854095e-05
4.133500243024642584e-01 3.243222796879464303e-05
4.141694732271026802e-01 4.287912611581952974e-05
4.149905466745440474e-01 5.591387105704695827e-05
4.158132478653361330e-01 7.219111713661208315e-05
4.166375800264111584e-01 9.227159210201653036e-05
4.174635463910987276e-01 1.174058385214022071e-04
4.182911501991381509e-01 1.483696972283099740e-04
4.191203946966917671e-01 1.863367262718016500e-04
4.199512831363568788e-01 2.331574481290285723e-04
4.207838187771793526e-01 2.897900743992398091e-04
4.216180048846655537e-01 3.578043494215252208e-04
4.224538447307958910e-01 4.391327803009944012e-04
4.232913415940371404e-01 5.345355283944721019e-04
4.241304987593556564e-01 6.452998257232218969e-04
4.249713195182299730e-01 7.727400494369692256e-04
4.258138071686639048e-01 9.164037127193996532e-04
4.266579650151993697e-01 1.076560507168648068e-03
4.275037963689294895e-01 1.251284215519271343e-03
4.283513045475113579e-01 1.443265198566989239e-03
4.292004928751793069e-01 1.645634627926551670e-03
4.300513646827577863e-01 1.860056908928253965e-03
4.309039233076744635e-01 2.080888761388082712e-03
4.317581720939732692e-01 2.305982196522310835e-03
4.326141143923275534e-01 2.522743635284331685e-03
4.334717535600533522e-01 2.754595051687184354e-03
4.343310929611222670e-01 2.967607181053866922e-03
4.351921359661750643e-01 3.178192084603171513e-03
4.360548859525344434e-01 3.371339604064275703e-03
4.369193463042185255e-01 3.548475354856260415e-03
4.377855204119542321e-01 3.706992955222370920e-03
4.386534116731903299e-01 3.834978973977850800e-03
4.395230234921110313e-01 3.915578819492144570e-03
4.403943592796489837e-01 4.021399798689913839e-03
4.412674224534991474e-01 4.051614793286720424e-03
4.421422164381316189e-01 4.078650596818621070e-03
4.430187446648055638e-01 3.902524345866398986e-03
4.438970105715824288e-01 4.073649829063994907e-03
4.447770176033394307e-01 4.010457814278941407e-03
4.456587692117831567e-01 3.947036437190284096e-03
4.465422688554630537e-01 3.849997875907437261e-03
4.474275199997848063e-01 3.757486909966245570e-03
4.483145261170245477e-01 3.657824190929545236e-03
4.492032906863416275e-01 3.535153070721417084e-03
4.500938171937928778e-01 3.390070811659564014e-03
4.509861091323460469e-01 3.290847718079175938e-03
4.518801700018936218e-01 3.141399311568819804e-03
4.527760033092663727e-01 2.997222331384248942e-03
4.536736125682472309e-01 2.863364949153052782e-03
4.545730012995851110e-01 2.716469544507852003e-03
4.554741730310086778e-01 2.578733481275278898e-03
4.563771312972400018e-01 2.444476931080455037e-03
4.572818796400087704e-01 2.316250067304133353e-03
4.581884216080659433e-01 2.193987916214962079e-03
4.590967607571977416e-01 2.077648759980657914e-03
4.600069006502395808e-01 1.966744026004760715e-03
4.609188448570899488e-01 1.860321482031126235e-03
4.618325969547246723e-01 1.756168373499815286e-03
4.627481605272105725e-01 1.646287011815250135e-03
4.636655391657200642e-01 1.440372707363223644e-03
4.645847364685444791e-01 9.198985079026786218e-04
4.655057560411089979e-01 1.385114857359773894e-03
4.664286014959861393e-01 1.332031287374881717e-03
4.673532764529103045e-01 1.263653220936038126e-03
4.682797845387918767e-01 1.194022568663062915e-03
4.692081293877314319e-01 1.121647742969284975e-03
4.701383146410339497e-01 1.055583084585215480e-03
4.710703439472231357e-01 9.920251575113332981e-04
4.720042209620557982e-01 9.298632084192354945e-04
4.729399493485361705e-01 8.694936073569194688e-04
4.738775327769301215e-01 8.121953368213733490e-04
4.748169749247795890e-01 7.577841457418057298e-04
4.757582794769174561e-01 7.059516771373503322e-04
4.767014501254810965e-01 6.566209746819252424e-04
4.776464905699279728e-01 6.100912374574771809e-04
4.785934045170490148e-01 5.663042384114485737e-04
4.795421956809841624e-01 5.255079565581022944e-04
4.804928677832361328e-01 4.874638140135890562e-04
4.814454245526856302e-01 4.524564957095113141e-04
4.823998697256054458e-01 4.203707217097311911e-04
4.833562070456756676e-01 3.912050778646408342e-04
4.843144402639977808e-01 3.648307180536666718e-04
4.852745731391099326e-01 3.410522039407083966e-04
4.862366094370011993e-01 3.207077980372600176e-04
4.872005529311266847e-01 3.025378749249703304e-04
4.881664074024222311e-01 2.870960974512945150e-04
4.891341766393191848e-01 2.734149596384631304e-04
4.901038644377592735e-01 2.623126193594121783e-04
4.910754746012093719e-01 2.527964620190533969e-04
4.920490109406770451e-01 2.448846023227619880e-04
4.930244772747244264e-01 2.383417439174349644e-04
4.940018774294842596e-01 2.329493457059493360e-04
4.949812152386740549e-01 2.285227633055808972e-04
4.959624945436119647e-01 2.247872111848316133e-04
4.969457191932307727e-01 2.216214415559106482e-04
4.979308930440943248e-01 2.185032988732754308e-04
4.989180199604112964e-01 2.158389296536444195e-04
4.999071038140513457e-01 2.135715464924450933e-04
5.008981484845598242e-01 2.108528464305868414e-04
5.018911578591733758e-01 2.068130990890454542e-04
5.028861358328344799e-01 2.036437908512206266e-04
5.038830863082074396e-01 1.943979556234103621e-04
5.048820131956934798e-01 1.995885721119316689e-04
5.058829204134459578e-01 1.976567385257083000e-04
5.068858118873857954e-01 1.960055891688042295e-04
5.078906915512167997e-01 1.928278322004661066e-04
5.088975633464413173e-01 1.915170979584979649e-04
5.099064312223754447e-01 1.897450810693074698e-04
5.109172991361647931e-01 1.894575970376204588e-04
5.119301710527995875e-01 1.879612888598428090e-04
5.129450509451307649e-01 1.865972321938649543e-04
5.139619427938850738e-01 1.856412444843754598e-04
5.149808505876810605e-01 1.846406518700199797e-04
5.160017783230443911e-01 1.834591931461405402e-04
5.170247300044235050e-01 1.824412512112080689e-04
5.180497096442059357e-01 1.814140394217227711e-04
5.190767212627332983e-01 1.804947410392414276e-04
5.201057688883173880e-01 1.797556031330840875e-04
5.211368565572560563e-01 1.790950942492913604e-04
5.221699883138488651e-01 1.786016339892349913e-04
5.232051682104131851e-01 1.782297485796483730e-04
5.242424003072996275e-01 1.779730931475497304e-04
5.252816886729083645e-01 1.780259974148402046e-04
5.263230373837054499e-01 1.782109016691897684e-04
5.273664505242375844e-01 1.785125258516176221e-04
5.284119321871496577e-01 1.789763276616199118e-04
5.294594864731995143e-01 1.796267734848919445e-04
5.305091174912749397e-01 1.803628449265662858e-04
5.315608293584090926e-01 1.813531208333439104e-04
5.326146261997972697e-01 1.824692127010188437e-04
5.336705121488125592e-01 1.837019761007787722e-04
5.347284913470226053e-01 1.850185694875301952e-04
5.357885679442050408e-01 1.863952352526251942e-04
5.368507460983646951e-01 1.878194652810576994e-04
5.379150299757492482e-01 1.892657505934129290e-04
5.389814237508658845e-01 1.907816241883740580e-04
5.400499316064977240e-01 1.916333284718077230e-04
5.411205577337194761e-01 1.918903359037563963e-04
5.421933063319153145e-01 1.947910207275166665e-04
5.432681816087936433e-01 1.965136951583098970e-04
5.443451877804054151e-01 1.984780264699467648e-04
5.454243290711588976e-01 2.002380124079468924e-04
5.465056097138375479e-01 2.009374413884548564e-04
5.475890339496158887e-01 2.031321447738408572e-04
5.486746060280766057e-01 2.046884774773467396e-04
5.497623302072268681e-01 2.058309721622122220e-04
5.508522107535150925e-01 2.071787745966730183e-04
5.519442519418479298e-01 2.080212926168007099e-04
5.530384580556066965e-01 2.089375686454476464e-04
5.541348333866644715e-01 2.095132486818152234e-04
5.552333822354027504e-01 2.097303576797687101e-04
5.563341089107282089e-01 2.097336445769538299e-04
5.574370177300899121e-01 2.093985275276265788e-04
5.585421130194961892e-01 2.087496475751781223e-04
5.596493991135309543e-01 2.077871216749810389e-04
5.607588803553721357e-01 2.064696941045583397e-04
5.618705610968067754e-01 2.049198668257155842e-04
5.629844456982502354e-01 2.029568740080243061e-04
5.641005385287614082e-01 2.006758206492177286e-04
5.652188439660609243e-01 1.980193170542213536e-04
5.663393663965482494e-01 1.947920324990551246e-04
5.674621102153183383e-01 1.906364092942043728e-04
5.685870798261795089e-01 1.841494156155235116e-04
5.697142796416703181e-01 1.815519409126071701e-04
5.708437140830771028e-01 1.785712334304937203e-04
5.719753875804510779e-01 1.726690626585559659e-04
5.731093045726258772e-01 1.673736735430995069e-04
5.742454695072350956e-01 1.614189662991814909e-04
5.753838868407292750e-01 1.556550278847160067e-04
5.765245610383941122e-01 1.491411354146815710e-04
5.776674965743670009e-01 1.415538137561266562e-04
5.788126979316554621e-01 1.347116912425356551e-04
5.799601696021545738e-01 1.269958068167685323e-04
5.811099160866638469e-01 1.181005403937745801e-04
5.822619418949059877e-01 1.092481629464650723e-04
5.834162515455436626e-01 9.947668557857709793e-05
5.845728495661978164e-01 8.862573368854517947e-05
5.857317404934651028e-01 7.530196798116197115e-05
5.868929288729358706e-01 5.778162879240408497e-05
5.880564192592117045e-01 2.896511424860971284e-05
5.892222162159238552e-01 4.267786084524291323e-06
5.903903243157504477e-01 2.077151514654873482e-05
5.915607481404348000e-01 6.184903463669128487e-05
5.927334922808035200e-01 9.326620774157860306e-05
5.939085613367841576e-01 1.239917182711065184e-04
5.950859599174235237e-01 1.495420074951367125e-04
5.962656926409057867e-01 1.817510429717348556e-04
5.974477641345700141e-01 2.189021325850531378e-04
5.986321790349292682e-01 2.562481682444017446e-04
5.998189419876881479e-01 2.990856487295868549e-04
6.010080576477609959e-01 3.505734942979623898e-04
6.021995306792905511e-01 4.043181773792928137e-04
6.033933657556659336e-01 4.624215059653985624e-04
6.045895675595410745e-01 5.268920286369219858e-04
6.057881407828531461e-01 6.007707153261979431e-04
6.069890901268405470e-01 6.792458291318284949e-04
6.081924203020619979e-01 7.645059064173703733e-04
6.093981360284147497e-01 8.565085525648167847e-04
6.106062420351527908e-01 9.582537461321269509e-04
6.118167430609059432e-01 1.066811693670714810e-03
6.130296438536979586e-01 1.185967932521530058e-03
6.142449491709652820e-01 1.314411149497061353e-03
6.154626637795761468e-01 1.454325469012853096e-03
6.166827924558484497e-01 1.604975339568954790e-03
6.179053399855690687e-01 1.768606857299804972e-03
6.191303111640127366e-01 1.945930398647304415e-03
6.203577107959604708e-01 2.135747262609016470e-03
6.215875436957183364e-01 2.342753386718545577e-03
6.228198146871369856e-01 2.564122126098958808e-03
6.240545286036297545e-01 2.802501414470976414e-03
6.252916902881922034e-01 3.049838417697165079e-03
6.265313045934209901e-01 3.306253142924413507e-03
6.277733763815327439e-01 3.600231893603368129e-03
6.290179105243831614e-01 3.939044018037850779e-03
6.302649119034864356e-01 4.295856166855496240e-03
6.315143854100337961e-01 4.651905358730391328e-03
6.327663359449133829e-01 5.024903344449767155e-03
6.340207684187288972e-01 5.455773041894221298e-03
6.352776877518192533e-01 5.917324988063242183e-03
6.365370988742777847e-01 6.387965808827743286e-03
6.377990067259713403e-01 6.902471451953623265e-03
6.390634162565598242e-01 7.427626637327644325e-03
6.403303324255159579e-01 8.025512334825837465e-03
6.415997602021441537e-01 8.627695189493755218e-03
6.428717045656001661e-01 9.302815916087338668e-03
6.441461705049108533e-01 9.831798926272866668e-03
6.454231630189937174e-01 1.039333269110830939e-02
6.467026871166762225e-01 1.062903284936301575e-02
6.479847478167156671e-01 1.159354409398131308e-02
6.492693501478188356e-01 1.277290033906346330e-02
6.505564991486617599e-01 1.410565322823395355e-02
6.518461998679093705e-01 1.399573277500461288e-02
6.531384573642354807e-01 1.603497595584544438e-02
6.544332767063422152e-01 1.722911467472945310e-02
6.557306629729804381e-01 1.808150073384771558e-02
6.570306212529695156e-01 1.926433434446426715e-02
6.583331566452168548e-01 2.089855289446271303e-02
6.596382742587384440e-01 2.279784564009711828e-02
6.609459792126787248e-01 2.419117940632703467e-02
6.622562766363304654e-01 2.628461749202956957e-02
6.635691716691552999e-01 2.793725380535818162e-02
6.648846694608032681e-01 3.015486417065450092e-02
6.662027751711334655e-01 3.227238391788107147e-02
6.675234939702344716e-01 3.454894091837232978e-02
6.688468310384441118e-01 3.700249492490191583e-02
6.701727915663699964e-01 3.957425789826247986e-02
6.715013807549099489e-01 4.226194244550338791e-02
6.728326038152724342e-01 4.504103403939063027e-02
6.741664659689967642e-01 4.809507067825586485e-02
6.755029724479738595e-01 5.120518343561396291e-02
6.768421284944665661e-01 5.448233698427221161e-02
6.781839393611303057e-01 5.789955048106260049e-02
6.795284103110337259e-01 6.151095717198559049e-02
6.808755466176791282e-01 6.526147837554970021e-02
6.822253535650235623e-01 6.905757531972113450e-02
6.835778364474991431e-01 7.321863341812848147e-02
6.849330005700339230e-01 7.742282961371006744e-02
6.862908512480728751e-01 8.180775244364633936e-02
6.876513938075984322e-01 8.640454306755152025e-02
6.890146335851516923e-01 9.068403741941545582e-02
6.903805759278532905e-01 9.293554120587364797e-02
6.917492261934242714e-01 8.934671639747848726e-02
6.931205897502070723e-01 8.461546500189594255e-02
6.944946719771865062e-01 9.348390843153611685e-02
6.958714782640114116e-01 1.031008005656613158e-01
6.972510140110148580e-01 1.143623813568469538e-01
6.986332846292361287e-01 1.154746169160369706e-01
7.000182955404418150e-01 1.139260358317506494e-01
7.014060521771465773e-01 1.178855021547274839e-01
7.027965599826351273e-01 1.202068217423023222e-01
7.041898244109829896e-01 1.224378681963006338e-01
7.055858509270783729e-01 1.261816813798176395e-01
7.069846450066432642e-01 1.294511231650916083e-01
7.083862121362551889e-01 1.317678390727793081e-01
7.097905578133681948e-01 1.313802771652317625e-01
7.111976875463352776e-01 1.324036118412621477e-01
7.126076068544293651e-01 1.311031727031308769e-01
7.140203212678648548e-01 1.308091524366974678e-01
7.154358363278199295e-01 1.181869468365586984e-01
7.168541575864576521e-01 8.026538236911190394e-02
7.182752906069482801e-01 8.508897428932221674e-02
7.196992409634904719e-01 9.264421578170396743e-02
7.211260142413337126e-01 1.023630869637996155e-01
7.225556160368000747e-01 1.094563814049552691e-01
7.239880519573058670e-01 9.834515652378623962e-02
7.254233276213841730e-01 9.608574190974571161e-02
7.268614486587061663e-01 9.441083712785242055e-02
7.283024207101040925e-01 9.925285048062681970e-02
7.297462494275925859e-01 9.193850956151224108e-02
7.311929404743913175e-01 8.548148755049499170e-02
7.326424995249467553e-01 9.422962270920788586e-02
7.340949322649550357e-01 9.968348251384874514e-02
7.355502443913839450e-01 9.449484476993441628e-02
7.370084416124950133e-01 9.445197782675110454e-02
7.384695296478663851e-01 9.449870406649542309e-02
7.399335142284149125e-01 9.328536901920818358e-02
7.414004010964189151e-01 9.322432985314367537e-02
7.428701960055402731e-01 9.389249244618591561e-02
7.443429047208474092e-01 9.049234107065272370e-02
7.458185330188378259e-01 8.998611120956390153e-02
7.472970866874605322e-01 8.808371024437104679e-02
7.487785715261390251e-01 8.439579541765636350e-02
7.502629933457937161e-01 8.135367751780185619e-02
7.517503579688651349e-01 7.753947860211869714e-02
7.532406712293365780e-01 7.366980822838671561e-02
7.547339389727567571e-01 6.962458697464772583e-02
7.562301670562631140e-01 6.539790261860456422e-02
7.577293613486043578e-01 6.108494223953579716e-02
7.592315277301641130e-01 5.659230274887142031e-02
7.607366720929834569e-01 5.203863653199424649e-02
7.622448003407840122e-01 4.724521803022137950e-02
7.637559183889915948e-01 4.132305528499419928e-02
7.652700321647588622e-01 2.849934461524800816e-02
7.667871476069888503e-01 8.654916462410585862e-03
7.683072706663583995e-01 2.864516240638510791e-02
7.698304073053409136e-01 2.002338724104043427e-02
