# #Wavelength [um]    Spectral Flux [W/m2/um] for R=0.1*Rsol at 10 pc
2.000333353419446181e-01 2.088648066297519562e-28
2.001000282544393716e-01 2.122867259653622787e-28
2.001667434029507087e-01 2.157638895746167920e-28
2.002334807948923656e-01 2.192971706378395457e-28
2.003002404376805767e-01 2.228874525902387632e-28
2.003670223387338523e-01 2.265356550918807076e-28
2.004338265054734780e-01 2.302426877389249431e-28
2.005006529453228215e-01 2.340094839304332359e-28
2.005675016657081089e-01 2.378370035798599766e-28
2.006343726740577593e-01 2.417261879670932641e-28
2.007012659778028563e-01 2.456780315589863613e-28
2.007681815843769535e-01 2.496935003912503270e-28
2.008351195012158252e-01 2.537736428003201489e-28
2.009020797357580213e-01 2.579194513963293421e-28
2.009690622954444505e-01 2.621319834219685031e-28
2.010360671877184646e-01 2.664122780778690766e-28
2.011030944200260517e-01 2.707614160447098673e-28
2.011701439998155039e-01 2.751804863333423422e-28
2.012372159345377221e-01 2.796705939564588855e-28
2.013043102316459942e-01 2.842328635568328987e-28
2.013714268985961897e-01 2.888684219975635870e-28
2.014385659428465647e-01 2.935784488136351775e-28
2.015057273718580122e-01 2.983641021133659833e-28
2.015729111930936457e-01 3.032265720743081315e-28
2.016401174140193819e-01 3.081670904197155076e-28
2.017073460421033582e-01 3.131868698182565908e-28
2.017745970848165427e-01 3.182871656900026729e-28
2.018418705496318466e-01 3.234692468429754637e-28
2.019091664440252343e-01 3.287344106847483166e-28
2.019764847754748904e-01 3.340839576730670972e-28
2.020438255514614978e-01 3.395192305622670717e-28
2.021111887794682371e-01 3.450415440525181670e-28
2.021785744669808427e-01 3.506522995760896535e-28
2.022459826214875744e-01 3.563528886968586004e-28
2.023134132504791072e-01 3.621447182120831132e-28
2.023808663614485859e-01 3.680292087162861985e-28
2.024483419618916535e-01 3.740078013810445854e-28
2.025158400593067010e-01 3.800820238707037795e-28
2.025833606611942284e-01 3.862533581868353774e-28
2.026509037750575115e-01 3.925233237359894004e-28
2.027184694084022409e-01 3.988934704102613053e-28
2.027860575687366329e-01 4.053653799133525147e-28
2.028536682635713739e-01 4.119406378495600246e-28
2.029213015004195930e-01 4.186208735010560017e-28
2.029889572867970560e-01 4.254077180020552074e-28
2.030566356302220266e-01 4.323028537366453480e-28
2.031243365382152388e-01 4.393079875171439110e-28
2.031920600182997860e-01 4.464248107362175631e-28
2.032598060780015370e-01 4.536551133370159453e-28
2.033275747248486920e-01 4.610006153263960720e-28
2.033953659663720048e-01 4.684631708244744639e-28
2.034631798101047551e-01 4.760446132565548051e-28
2.035310162635826925e-01 4.837467654839397162e-28
2.035988753343440927e-01 4.915715251192310750e-28
2.036667570299298957e-01 4.995208402357081934e-28
2.037346613578833732e-01 5.075966340176156422e-28
2.038025883257502113e-01 5.158008539833189896e-28
2.038705379410788443e-01 5.241355258067660722e-28
2.039385102114202319e-01 5.326027022208141316e-28
2.040065051443276378e-01 5.412044585280351666e-28
2.040745227473570733e-01 5.499428545279825584e-28
2.041425630280668535e-01 5.588200464795081935e-28
2.042106259940180135e-01 5.678381680795998810e-28
2.042787116527738922e-01 5.769994592375001734e-28
2.043468200119006872e-01 5.863061488051621112e-28
2.044149510789666779e-01 5.957604598727104704e-28
2.044831048615429747e-01 6.053647052839929712e-28
2.045512813672031860e-01 6.151212547833719448e-28
2.046194806035233626e-01 6.250324219376073664e-28
2.046877025780821091e-01 6.351006237731347273e-28
2.047559472984605278e-01 6.453283438586676706e-28
2.048242147722422746e-01 6.557180603155999892e-28
2.048925050070136422e-01 6.662722310370004585e-28
2.049608180103632826e-01 6.769934367967638359e-28
2.050291537898824290e-01 6.878842722556351718e-28
2.050975123531648958e-01 6.989474002397034309e-28
2.051658937078068567e-01 7.101854643161309285e-28
2.052342978614073443e-01 7.216011535991872611e-28
2.053027248215676392e-01 7.331972579246084155e-28
2.053711745958917423e-01 7.449765563485176859e-28
2.054396471919859579e-01 7.569419152856986561e-28
2.055081426174593107e-01 7.690961866080060920e-28
2.055766608799234618e-01 7.814422921219480693e-28
2.056452019869922931e-01 7.939832215835699774e-28
2.057137659462825452e-01 8.067220255130272811e-28
2.057823527654132068e-01 8.196616831009141304e-28
2.058509624520060421e-01 8.328053081124306486e-28
2.059195950136853137e-01 8.461561119596013415e-28
2.059882504580776430e-01 8.597172877528577246e-28
2.060569287928124271e-01 8.734920610086407794e-28
2.061256300255215612e-01 8.874837122362120899e-28
2.061943541638392718e-01 9.016956109988831523e-28
2.062631012154026722e-01 9.161311313291562061e-28
2.063318711878511513e-01 9.307937172621262337e-28
2.064006640888267352e-01 9.456869733149915795e-28
2.064694799259740032e-01 9.608143410239310908e-28
2.065383187069400606e-01 9.761794667702336475e-28
2.066071804393747324e-01 9.917860118660622791e-28
2.066760651309300367e-01 1.007637674960456993e-27
2.067449727892608502e-01 1.023738264655422246e-27
2.068139034220245753e-01 1.040091575574360560e-27
2.068828570368809461e-01 1.056701519211493289e-27
2.069518336414924720e-01 1.073572027206098292e-27
2.070208332435241882e-01 1.090707082505555722e-27
2.070898558506435450e-01 1.108110859285187674e-27
2.071589014705207121e-01 1.125787336245706348e-27
2.072279701108283301e-01 1.143740785872156157e-27
2.072970617792416481e-01 1.161975469466526879e-27
2.073661764834383581e-01 1.180495587612912635e-27
2.074353142310989551e-01 1.199305633262717514e-27
2.075044750299061269e-01 1.218410036693977541e-27
2.075736588875455313e-01 1.237813296982389190e-27
2.076428658117050741e-01 1.257520026487648620e-27
2.077120958100753256e-01 1.277534752657032645e-27
2.077813488903494654e-01 1.297862291132302826e-27
2.078506250602231986e-01 1.318507382359543224e-27
2.079199243273949227e-01 1.339474924453155111e-27
2.079892466995653943e-01 1.360769852039619005e-27
2.080585921844379516e-01 1.382397171467494567e-27
2.081279607897187078e-01 1.404361942451082798e-27
2.081973525231161637e-01 1.426669274685502564e-27
2.082667673923413176e-01 1.449324515091426985e-27
2.083362054051080270e-01 1.472332804667083132e-27
2.084056665691325916e-01 1.495699682264245703e-27
2.084751508921337260e-01 1.519430466573995562e-27
2.085446583818328925e-01 1.543530900450645415e-27
2.086141890459540238e-01 1.568006443465712723e-27
2.086837428922236892e-01 1.592862949423790912e-27
2.087533199283710950e-01 1.618106141386956330e-27
2.088229201621278897e-01 1.643741892498749517e-27
2.088925436012284420e-01 1.669776267193271488e-27
2.089621902534096187e-01 1.696215147150732312e-27
2.090318601264107845e-01 1.723064889390583758e-27
2.091015532279739131e-01 1.750331610274358041e-27
2.091712695658437537e-01 1.778021707034543758e-27
2.092410091477674705e-01 1.806141548992865341e-27
2.093107719814948364e-01 1.834697795290060463e-27
2.093805580747781780e-01 1.863696925547278713e-27
2.094503674353725420e-01 1.893145692723210365e-27
2.095202000710353341e-01 1.923050890382745348e-27
2.095900559895266801e-01 1.953419580544259728e-27
2.096599351986093152e-01 1.984258565519144697e-27
2.097298377060485552e-01 2.015575104729101493e-27
2.097997635196123811e-01 2.047376413066993991e-27
2.098697126470710494e-01 2.079669869724135801e-27
2.099396850961977035e-01 2.112462931166429907e-27
2.100096808747680677e-01 2.145763000414227167e-27
2.100796999905602536e-01 2.179577855101691457e-27
2.101497424513552592e-01 2.213915308977835051e-27
2.102198082649363864e-01 2.248783144785159104e-27
2.102898974390897679e-01 2.284189486704595287e-27
2.103600099816040347e-01 2.320142427581636671e-27
2.104301459002703434e-01 2.356650183893386991e-27
2.105003052028824040e-01 2.393721020564799345e-27
2.105704878972368133e-01 2.431363743572037656e-27
2.106406939911325826e-01 2.469586707752419751e-27
2.107109234923712215e-01 2.508398655830298215e-27
2.107811764087569872e-01 2.547808612648293162e-27
2.108514527480967737e-01 2.587825362575853416e-27
2.109217525181998620e-01 2.628458344753020176e-27
2.109920757268783642e-01 2.669716574815056304e-27
2.110624223819471124e-01 2.711609463031777440e-27
2.111327924912229648e-01 2.754146514065503029e-27
2.112031860625259994e-01 2.797337740459044003e-27
2.112736031036786255e-01 2.841192747880849061e-27
2.113440436225058616e-01 2.885721313637268593e-27
2.114145076268353352e-01 2.930933724568861770e-27
2.114849951244974768e-01 2.976840178018770605e-27
2.115555061233250489e-01 3.023451226619518583e-27
2.116260406311536724e-01 3.070777243465440474e-27
2.116965986558212720e-01 3.118829009043311394e-27
2.117671802051687147e-01 3.167617578890899842e-27
2.118377852870393374e-01 3.217153581099004845e-27
2.119084139092790309e-01 3.267448521579390865e-27
2.119790660797364057e-01 3.318513749961920524e-27
2.120497418062626260e-01 3.370360636198438513e-27
2.121204410967115483e-01 3.423000841267903739e-27
2.121911639589395826e-01 3.476446412609457818e-27
2.122619104008056923e-01 3.530709049475126875e-27
2.123326804301716719e-01 3.585801146536023613e-27
2.124034740549016753e-01 3.641735241676709238e-27
2.124742912828626595e-01 3.698523603656854166e-27
2.125451321219241629e-01 3.756179122076587588e-27
2.126159965799583329e-01 3.814714697723872900e-27
2.126868846648399536e-01 3.874143383305898165e-27
2.127577963844464737e-01 3.934478831036179730e-27
2.128287317466578121e-01 3.995733873262006997e-27
2.128996907593566912e-01 4.057922473057847474e-27
2.129706734304284144e-01 4.121058575479956791e-27
2.130416797677608942e-01 4.185156460765989652e-27
2.131127097792446523e-01 4.250230154702259449e-27
2.131837634727728747e-01 4.316294109982870648e-27
2.132548408562413289e-01 4.383363089722712777e-27
2.133259419375485300e-01 4.451452328495176432e-27
2.133970667245954633e-01 4.520576555380711788e-27
2.134682152252859177e-01 4.590751221637766240e-27
2.135393874475261800e-01 4.661991634947134171e-27
2.136105833992251735e-01 4.734314043275484960e-27
2.136818030882946251e-01 4.807734082626788149e-27
2.137530465226487597e-01 4.882268376816151425e-27
2.138243137102044944e-01 4.957933045316733545e-27
2.138956046588812998e-01 5.034745100057258443e-27
2.139669193766012834e-01 5.112721412351187732e-27
2.140382578712894945e-01 5.191879177480178336e-27
2.141096201508731200e-01 5.267801498546040767e-27
2.141810062232823719e-01 5.349277286348098191e-27
2.142524160964500157e-01 5.431985286421173830e-27
2.143238497783114260e-01 5.515943763196433100e-27
2.143953072768046697e-01 5.601170915395611037e-27
2.144667885998703394e-01 5.687685832674426411e-27
2.145382937554518032e-01 5.775506691357700992e-27
2.146098227514950108e-01 5.864653666292722558e-27
2.146813755959486869e-01 5.955145613898521793e-27
2.147529522967639715e-01 6.041751607881689353e-27
2.148245528618948630e-01 6.132298706552777340e-27
2.148961772992979413e-01 6.226771895072475808e-27
2.149678256169323953e-01 6.322667032068287145e-27
2.150394978227601894e-01 6.420005043114897830e-27
2.151111939247458416e-01 6.518806405942830972e-27
2.151829139308563954e-01 6.619092936434392784e-27
2.152546578490618367e-01 6.720886741123981967e-27
2.153264256873347049e-01 6.824209629637397037e-27
2.153982174536501759e-01 6.929083225394793110e-27
2.154700331559858406e-01 7.035530551559572717e-27
2.155418728023224262e-01 7.143575352312868016e-27
2.156137364006430468e-01 7.248958885651857609e-27
2.156856239589334256e-01 7.354586448293356005e-27
2.157575354851821448e-01 7.467345841359269787e-27
2.158294709873802009e-01 7.581792619560997209e-27
2.159014304735215051e-01 7.697950144320850668e-27
2.159734139516024387e-01 7.815844082905655208e-27
2.160454214296221587e-01 7.935499843136782704e-27
2.161174529155825697e-01 8.056942022201330033e-27
2.161895084174878801e-01 8.180197767022775961e-27
2.162615879433454069e-01 8.305292771526481411e-27
2.163336915011650208e-01 8.432252779741579447e-27
2.164058190989590347e-01 8.561105935709133296e-27
2.164779707447426205e-01 8.691879072660811979e-27
2.165501464465336701e-01 8.824600012069180497e-27
2.166223462123525456e-01 8.959297366508538388e-27
2.166945700502225791e-01 9.095999111240722243e-27
2.167668179681694340e-01 9.234734059969575928e-27
2.168390899742217715e-01 9.369600475275440487e-27
2.169113860764107504e-01 9.507261244421279593e-27
2.169837062827701113e-01 9.652033238992603094e-27
2.170560506013366198e-01 9.798952606215858392e-27
2.171284190401493175e-01 9.948050041996364970e-27
2.172008116072502437e-01 1.009935790102389165e-26
2.172732283106838802e-01 1.025290663498770937e-26
2.173456691584975120e-01 1.040872899390100926e-26
2.174181341587410610e-01 1.056685701394627006e-26
2.174906233194673355e-01 1.072732437358770747e-26
2.175631366487315033e-01 1.089016470652640379e-26
2.176356741545915907e-01 1.105541118980250567e-26
2.177082358451083166e-01 1.122309810122100425e-26
2.177808217283450920e-01 1.139326084565987408e-26
2.178534318123679092e-01 1.156593402926033000e-26
2.179260661052455916e-01 1.174115427121418007e-26
2.179987246150495994e-01 1.191895713870892959e-26
2.180714073498540018e-01 1.209938010832024273e-26
2.181441143177356989e-01 1.228245964410578540e-26
2.182168455267741725e-01 1.246823402205220041e-26
2.182896009850516517e-01 1.265674168776115784e-26
2.183623807006531414e-01 1.284802110466279741e-26
2.184351846816661447e-01 1.304211160415293176e-26
2.185080129361809675e-01 1.323905278476269348e-26
2.185808654722906363e-01 1.342780954939126970e-26
2.186537422980908973e-01 1.362299381245057658e-26
2.187266434216800781e-01 1.382833469099239513e-26
2.187995688511593373e-01 1.403668107146109567e-26
2.188725185946324148e-01 1.424807773545323802e-26
2.189454926602059093e-01 1.446256708334319812e-26
2.190184910559889175e-01 1.468019121580892307e-26
2.190915137900934506e-01 1.490099478294986093e-26
2.191645608706340176e-01 1.512502345396771725e-26
2.192376323057280141e-01 1.535232128010665014e-26
2.193107281034955280e-01 1.558293532158889061e-26
2.193838482720592009e-01 1.581691044213531852e-26
2.194569928195444219e-01 1.605429535924624806e-26
2.195301617540793837e-01 1.629513643969911823e-26
2.196033550837951098e-01 1.653948253903227507e-26
2.196765728168250387e-01 1.678738236679601178e-26
2.197498149613053564e-01 1.703888582439954412e-26
2.198230815253751358e-01 1.729404417071649410e-26
2.198963725171761974e-01 1.755290524427133246e-26
2.199696879448528597e-01 1.781552414443019236e-26
2.200430278165522724e-01 1.808195071699288327e-26
2.201163921404244161e-01 1.835223786965582485e-26
2.201897809246217141e-01 1.862644165997876333e-26
2.202631941772993929e-01 1.890461343888180891e-26
2.203366319066156487e-01 1.918680854903908828e-26
2.204100941207310926e-01 1.947308463256222541e-26
2.204835808278091391e-01 1.976349772904402613e-26
2.205570920360162002e-01 2.005810151368762037e-26
2.206306277535209359e-01 2.035695622660360069e-26
2.207041879884950875e-01 2.066012152137378012e-26
2.207777727491129216e-01 2.096765593933983858e-26
2.208513820435515085e-01 2.127961904540408577e-26
2.209250158799907215e-01 2.159607199182093989e-26
2.209986742666131265e-01 2.191707605322314253e-26
2.210723572116037872e-01 2.224269296798790106e-26
2.211460647231507926e-01 2.255999634263401819e-26
2.212197968094448131e-01 2.287405440775536049e-26
2.212935534786794056e-01 2.321318535451583768e-26
2.213673347390506529e-01 2.355716893818218016e-26
2.214411405987574410e-01 2.390607459883656806e-26
2.215149710660014593e-01 2.425996821226745499e-26
2.215888261489870892e-01 2.461891708873672630e-26
2.216627058559213492e-01 2.498299108947169232e-26
2.217366101950142554e-01 2.535225846811005356e-26
2.218105391744781829e-01 2.570999697925789254e-26
2.218844928025285601e-01 2.276975149875836373e-26
2.219584710873834243e-01 2.308442040634844728e-26
2.220324740372637273e-01 2.340303672810348421e-26
2.221065016603927245e-01 2.073569901061182674e-26
2.221805539649969741e-01 2.032684973044290747e-26
2.222546309593053104e-01 2.058439088708574365e-26
2.223287326515496209e-01 2.083036733775044808e-26
2.224028590499643465e-01 1.772877095219335602e-26
2.224770101627867591e-01 1.793400024538535533e-26
2.225511859982568508e-01 1.814091814454201420e-26
2.226253865646174723e-01 1.834951708669333991e-26
2.226996118701140004e-01 1.755477141293087833e-26
2.227738619229947814e-01 1.565259514144076051e-26
2.228481367315106876e-01 1.581516857201886772e-26
2.229224363039155887e-01 1.597865544786620003e-26
2.229967606484659637e-01 1.614304308096860503e-26
2.230711097734211501e-01 1.630832137761723505e-26
2.231454836870430392e-01 1.493666711795384959e-26
2.232198823975963531e-01 1.375000546609729059e-26
2.232943059133486452e-01 1.387519343615630495e-26
2.233687542425702999e-01 1.400069301961885535e-26
2.234432273935342272e-01 1.412648305261401037e-26
2.235177253745162795e-01 1.425254020434604171e-26
2.235922481937950568e-01 1.437884286166599899e-26
2.236667958596517958e-01 1.386004048166553675e-26
2.237413683803705922e-01 1.192525840894214041e-26
2.238159657642382616e-01 1.201705199179550906e-26
2.238905880195443676e-01 1.210869605001258011e-26
2.239652351545813047e-01 1.220016676988647010e-26
2.240399071776442985e-01 1.229143930947663096e-26
2.241146040970311837e-01 1.238248547816551106e-26
2.241893259210424594e-01 1.247328205697675000e-26
2.242640726579817612e-01 1.256380868838745181e-26
2.243388443161551671e-01 1.265402917678783226e-26
2.244136409038716973e-01 1.064454715854849134e-26
2.244884624294430642e-01 1.037595071075749943e-26
2.245633089011838113e-01 1.043842942796195934e-26
2.246381803274111189e-01 1.050039458188920489e-26
2.247130767164451093e-01 1.056182209925171904e-26
2.247879980766085972e-01 1.062268787087808688e-26
2.248629444162272006e-01 1.068296481165331414e-26
2.249379157436292576e-01 1.074263065303659022e-26
2.250129120671459648e-01 1.080166470943991254e-26
2.250879333951112116e-01 1.086003731954261472e-26
2.251629797358616902e-01 1.091771872950499983e-26
2.252380510977369521e-01 1.097397836243954529e-26
2.253131474890791575e-01 9.827225641298550057e-27
2.253882689182334642e-01 8.852305822076811196e-27
2.254634153935476393e-01 8.888293662736261074e-27
2.255385869233724194e-01 8.923528583684592316e-27
2.256137835160610117e-01 8.957981362450978657e-27
2.256890051799696761e-01 8.991636135505118728e-27
2.257642519234574763e-01 9.024471771375298346e-27
2.258395237548860568e-01 9.056467075622930266e-27
2.259148206826199490e-01 9.087602197884268386e-27
2.259901427150266262e-01 9.117850991416347434e-27
2.260654898604761431e-01 9.147196247438213432e-27
2.261408621273413300e-01 9.175617362149042796e-27
2.262162595239979868e-01 9.203092523992686450e-27
2.262916820588246058e-01 9.229601205385612424e-27
2.263671297402023996e-01 9.255120728264240256e-27
2.264426025765155503e-01 9.279631629570625648e-27
2.265181005761509325e-01 9.303107425240295681e-27
2.265936237474981685e-01 8.102938776185643820e-27
2.266691720989497116e-01 7.907656761262308304e-27
2.267447456389009020e-01 7.920513283683093197e-27
2.268203443757498550e-01 7.932404066138296175e-27
2.268959683178973508e-01 7.943309924380923548e-27
2.269716174737470005e-01 7.953209412607647831e-27
2.270472918517054128e-01 7.962090475782442619e-27
2.271229914601818334e-01 7.969934289643296988e-27
2.271987163075883942e-01 7.976729299445505769e-27
2.272744664023398364e-01 7.982461859696516901e-27
2.273502417528539543e-01 7.987109958810359868e-27
2.274260423675512066e-01 7.990658683997692102e-27
2.275018682548549664e-01 7.993100516292316766e-27
2.275777194231912992e-01 7.994417010768780021e-27
2.276535958809891014e-01 7.994588667298458151e-27
2.277294976366801560e-01 7.993605915878314755e-27
2.278054246986989662e-01 7.991450184277002724e-27
2.278813770754829215e-01 7.988112426598438672e-27
2.279573547754721874e-01 7.983578165431637908e-27
2.280333578071098155e-01 7.977835018340310447e-27
2.281093861788414112e-01 7.970869995005629315e-27
2.281854398991157440e-01 7.962666160495719282e-27
2.282615189763842478e-01 7.953214990304429381e-27
2.283376234191011045e-01 7.199814258797835350e-27
