# #Wavelength [um]    Spectral Flux [W/m2/um] for R=0.1*Rsol at 10 pc
2.000333353419446181e-01 8.537988041178601869e-31
2.001000282544393716e-01 8.665551334847468375e-31
2.001667434029507087e-01 8.795001249367723247e-31
2.002334807948923656e-01 8.926365218009889605e-31
2.003002404376805767e-01 9.059670039066566181e-31
2.003670223387338523e-01 9.194947122011654459e-31
2.004338265054734780e-01 9.332223345698105860e-31
2.005006529453228215e-01 9.471528215384207164e-31
2.005675016657081089e-01 9.612891786979611775e-31
2.006343726740577593e-01 9.756343618797136103e-31
2.007012659778028563e-01 9.901915146472953737e-31
2.007681815843769535e-01 1.004963523871275646e-30
2.008351195012158252e-01 1.019953887534084711e-30
2.009020797357580213e-01 1.035165563892233214e-30
2.009690622954444505e-01 1.050601865117072813e-30
2.010360671877184646e-01 1.066265944076967911e-30
2.011030944200260517e-01 1.082161356489095305e-30
2.011701439998155039e-01 1.098291271089258784e-30
2.012372159345377221e-01 1.114659188549717642e-30
2.013043102316459942e-01 1.131268673038068015e-30
2.013714268985961897e-01 1.148123240936733148e-30
2.014385659428465647e-01 1.165226446084246936e-30
2.015057273718580122e-01 1.182581734055678886e-30
2.015729111930936457e-01 1.200193060754789505e-30
2.016401174140193819e-01 1.218064068929326834e-30
2.017073460421033582e-01 1.236198516373504630e-30
2.017745970848165427e-01 1.254600261538367615e-30
2.018418705496318466e-01 1.273273316288480375e-30
2.019091664440252343e-01 1.292221413987215104e-30
2.019764847754748904e-01 1.311448854813259682e-30
2.020438255514614978e-01 1.330959582760157079e-30
2.021111887794682371e-01 1.350757691734227559e-30
2.021785744669808427e-01 1.370847333793535943e-30
2.022459826214875744e-01 1.391232891372249207e-30
2.023134132504791072e-01 1.411918765165126816e-30
2.023808663614485859e-01 1.432909025961859264e-30
2.024483419618916535e-01 1.454208135129715381e-30
2.025158400593067010e-01 1.475820911458500817e-30
2.025833606611942284e-01 1.497751811248824958e-30
2.026509037750575115e-01 1.520005338827160256e-30
2.027184694084022409e-01 1.542586340635245309e-30
2.027860575687366329e-01 1.565499702462862708e-30
2.028536682635713739e-01 1.588749800442544965e-30
2.029213015004195930e-01 1.612342200082204507e-30
2.029889572867970560e-01 1.636281317499965196e-30
2.030566356302220266e-01 1.660572459261985946e-30
2.031243365382152388e-01 1.685220900940439673e-30
2.031920600182997860e-01 1.710231279439237187e-30
2.032598060780015370e-01 1.735609624162600318e-30
2.033275747248486920e-01 1.761360507085072691e-30
2.033953659663720048e-01 1.787490134389879733e-30
2.034631798101047551e-01 1.814003641457447321e-30
2.035310162635826925e-01 1.840906403178392342e-30
2.035988753343440927e-01 1.868204481380693721e-30
2.036667570299298957e-01 1.895903464865239183e-30
2.037346613578833732e-01 1.924009406347466385e-30
2.038025883257502113e-01 1.952527547392079359e-30
2.038705379410788443e-01 1.981464537955546072e-30
2.039385102114202319e-01 2.010826277156118057e-30
2.040065051443276378e-01 2.040619084310477760e-30
2.040745227473570733e-01 2.070848909564876529e-30
2.041425630280668535e-01 2.101522266348179942e-30
2.042106259940180135e-01 2.132645401718967997e-30
2.042787116527738922e-01 2.164225412775854876e-30
2.043468200119006872e-01 2.196268722971427579e-30
2.044149510789666779e-01 2.228781741695345132e-30
2.044831048615429747e-01 2.261771488796658057e-30
2.045512813672031860e-01 2.295244913119424525e-30
2.046194806035233626e-01 2.329208827487275778e-30
2.046877025780821091e-01 2.363670505225030310e-30
2.047559472984605278e-01 2.398637648186697892e-30
2.048242147722422746e-01 2.434117122645605908e-30
2.048925050070136422e-01 2.470116179699623978e-30
2.049608180103632826e-01 2.506642644062140026e-30
2.050291537898824290e-01 2.543704084400490638e-30
2.050975123531648958e-01 2.581308567783125349e-30
2.051658937078068567e-01 2.619463639286436668e-30
2.052342978614073443e-01 2.658177254048434994e-30
2.053027248215676392e-01 2.697457415305532534e-30
2.053711745958917423e-01 2.737312657508582667e-30
2.054396471919859579e-01 2.777751461833898631e-30
2.055081426174593107e-01 2.818781842960641554e-30
2.055766608799234618e-01 2.860412447919284895e-30
2.056452019869922931e-01 2.902652380321434684e-30
2.057137659462825452e-01 2.945510394549648242e-30
2.057823527654132068e-01 2.988994695451788238e-30
2.058509624520060421e-01 3.033114977362283597e-30
2.059195950136853137e-01 3.077880679552024262e-30
2.059882504580776430e-01 3.123301101849987595e-30
2.060569287928124271e-01 3.169385251299064048e-30
2.061256300255215612e-01 3.216142965432555833e-30
2.061943541638392718e-01 3.263584106801199544e-30
2.062631012154026722e-01 3.311718171066068071e-30
2.063318711878511513e-01 3.360555335997021710e-30
2.064006640888267352e-01 3.410106462186707567e-30
2.064694799259740032e-01 3.460380938275132194e-30
2.065383187069400606e-01 3.511390163625750966e-30
2.066071804393747324e-01 3.563143998094028998e-30
2.066760651309300367e-01 3.615653466587586332e-30
2.067449727892608502e-01 3.668929704847278059e-30
2.068139034220245753e-01 3.722983256580124274e-30
2.068828570368809461e-01 3.777825660741265817e-30
2.069518336414924720e-01 3.833468796440518486e-30
2.070208332435241882e-01 3.889923630213981090e-30
2.070898558506435450e-01 3.947202474013735109e-30
2.071589014705207121e-01 4.005316372493359289e-30
2.072279701108283301e-01 4.064278104216017687e-30
2.072970617792416481e-01 4.124099942630122603e-30
2.073661764834383581e-01 4.184793357191291769e-30
2.074353142310989551e-01 4.246372047497690187e-30
2.075044750299061269e-01 4.308848555100989987e-30
2.075736588875455313e-01 4.372235486169995612e-30
2.076428658117050741e-01 4.436547025106986678e-30
2.077120958100753256e-01 4.501794574359080931e-30
2.077813488903494654e-01 4.567992832431992697e-30
2.078506250602231986e-01 4.635155631636625608e-30
2.079199243273949227e-01 4.703296901017176127e-30
2.079892466995653943e-01 4.772430124841448191e-30
2.080585921844379516e-01 4.842570713331422473e-30
2.081279607897187078e-01 4.913732452947647872e-30
2.081973525231161637e-01 4.985929602592361895e-30
2.082667673923413176e-01 5.059178696389810529e-30
2.083362054051080270e-01 5.133492500651079171e-30
2.084056665691325916e-01 5.208888878651047366e-30
2.084751508921337260e-01 5.285380957765168408e-30
2.085446583818328925e-01 5.362986552740367403e-30
2.086141890459540238e-01 5.441721166525052032e-30
2.086837428922236892e-01 5.521600934939541847e-30
2.087533199283710950e-01 5.602641968189043351e-30
2.088229201621278897e-01 5.684861573867022095e-30
2.088925436012284420e-01 5.768276832759776481e-30
2.089621902534096187e-01 5.852903818158998793e-30
2.090318601264107845e-01 5.938761223336503271e-30
2.091015532279739131e-01 6.025865805476424966e-30
2.091712695658437537e-01 6.114236879497206474e-30
2.092410091477674705e-01 6.203891080113578345e-30
2.093107719814948364e-01 6.294848956647067522e-30
2.093805580747781780e-01 6.387126635106491971e-30
2.094503674353725420e-01 6.480744671071066103e-30
2.095202000710353341e-01 6.575721788212682728e-30
2.095900559895266801e-01 6.672078344994008486e-30
2.096599351986093152e-01 6.769832850136428601e-30
2.097298377060485552e-01 6.869006510324900901e-30
2.097997635196123811e-01 6.969618873127911626e-30
2.098697126470710494e-01 7.071691911115115133e-30
2.099396850961977035e-01 7.175245622636036782e-30
2.100096808747680677e-01 7.280301554114600860e-30
2.100796999905602536e-01 7.386881187546626795e-30
2.101497424513552592e-01 7.495006182827890204e-30
2.102198082649363864e-01 7.604698673081549344e-30
2.102898974390897679e-01 7.715970576385450781e-30
2.103600099816040347e-01 7.828854283572594463e-30
2.104301459002703434e-01 7.943374535163578501e-30
2.105003052028824040e-01 8.059552904674729010e-30
2.105704878972368133e-01 8.177415693765445297e-30
2.106406939911325826e-01 8.296985921511915681e-30
2.107109234923712215e-01 8.418287588558558829e-30
2.107811764087569872e-01 8.541345612287401525e-30
2.108514527480967737e-01 8.666185216919170128e-30
2.109217525181998620e-01 8.792832665732962977e-30
2.109920757268783642e-01 8.921312817935763783e-30
2.110624223819471124e-01 9.051652280697073730e-30
2.111327924912229648e-01 9.183877722699189886e-30
2.112031860625259994e-01 9.318016966223991519e-30
2.112736031036786255e-01 9.454097183893066458e-30
2.113440436225058616e-01 9.592145346376776073e-30
2.114145076268353352e-01 9.732189120374012086e-30
2.114849951244974768e-01 9.874257954494600807e-30
2.115555061233250489e-01 1.001838114826812755e-29
2.116260406311536724e-01 1.016458818864104671e-29
2.116965986558212720e-01 1.031290770777857450e-29
2.117671802051687147e-01 1.046337187447029148e-29
2.118377852870393374e-01 1.061600887286872112e-29
2.119084139092790309e-01 1.077085105632268857e-29
2.119790660797364057e-01 1.092793126661672748e-29
2.120497418062626260e-01 1.108728011333968726e-29
2.121204410967115483e-01 1.124892921091295993e-29
2.121911639589395826e-01 1.141291318704165553e-29
2.122619104008056923e-01 1.157926254017002761e-29
2.123326804301716719e-01 1.174801429386048937e-29
2.124034740549016753e-01 1.191920152109528996e-29
2.124742912828626595e-01 1.209285929653132309e-29
2.125451321219241629e-01 1.226902237004768646e-29
2.126159965799583329e-01 1.244772635838649272e-29
2.126868846648399536e-01 1.262900916656372368e-29
2.127577963844464737e-01 1.281290603691344584e-29
2.128287317466578121e-01 1.299945345024547525e-29
2.128996907593566912e-01 1.318869052602397595e-29
2.129706734304284144e-01 1.338065405315274670e-29
2.130416797677608942e-01 1.357538598619269662e-29
2.131127097792446523e-01 1.377292455361101528e-29
2.131837634727728747e-01 1.397330848848298492e-29
2.132548408562413289e-01 1.417657791921704977e-29
2.133259419375485300e-01 1.438277702462725471e-29
2.133970667245954633e-01 1.459194634557362542e-29
2.134682152252859177e-01 1.480412669181754367e-29
2.135393874475261800e-01 1.501936030357033374e-29
2.136105833992251735e-01 1.523769195184242820e-29
2.136818030882946251e-01 1.545916722313087625e-29
2.137530465226487597e-01 1.568382836099715928e-29
2.138243137102044944e-01 1.591172173633535420e-29
2.138956046588812998e-01 1.614289430609926974e-29
2.139669193766012834e-01 1.637739216797276851e-29
2.140382578712894945e-01 1.661526202986100018e-29
2.141096201508731200e-01 1.684343560755817723e-29
2.141810062232823719e-01 1.708794658592139259e-29
2.142524160964500157e-01 1.733596996581851660e-29
2.143238497783114260e-01 1.758755599555043951e-29
2.143953072768046697e-01 1.784275628397186569e-29
2.144667885998703394e-01 1.810162165354774687e-29
2.145382937554518032e-01 1.836420192784278273e-29
2.146098227514950108e-01 1.863055414366891000e-29
2.146813755959486869e-01 1.890072860460030920e-29
2.147529522967639715e-01 1.915961886442444480e-29
2.148245528618948630e-01 1.942988353238815518e-29
2.148961772992979413e-01 1.971142332363336268e-29
2.149678256169323953e-01 1.999699895160318465e-29
2.150394978227601894e-01 2.028666859806197525e-29
2.151111939247458416e-01 2.058048682190614884e-29
2.151829139308563954e-01 2.087851381171631341e-29
2.152546578490618367e-01 2.118081208662155358e-29
2.153264256873347049e-01 2.148744054359781654e-29
2.153982174536501759e-01 2.179845616227518866e-29
2.154700331559858406e-01 2.211392621838790073e-29
2.155418728023224262e-01 2.243391223257525926e-29
2.156137364006430468e-01 2.274651985789100547e-29
2.156856239589334256e-01 2.305992829104358416e-29
2.157575354851821448e-01 2.339332604609756155e-29
2.158294709873802009e-01 2.373149169000212400e-29
2.159014304735215051e-01 2.407448702962371440e-29
2.159734139516024387e-01 2.442238262034538128e-29
2.160454214296221587e-01 2.477524898416078726e-29
2.161174529155825697e-01 2.513315401522449516e-29
2.161895084174878801e-01 2.549617281098792548e-29
2.162615879433454069e-01 2.586437649225094690e-29
2.163336915011650208e-01 2.623782962837496949e-29
2.164058190989590347e-01 2.661661518320236843e-29
2.164779707447426205e-01 2.700080433007061495e-29
2.165501464465336701e-01 2.739047592540123083e-29
2.166223462123525456e-01 2.778570823207562260e-29
2.166945700502225791e-01 2.818657300877810232e-29
2.167668179681694340e-01 2.859315560702322948e-29
2.168390899742217715e-01 2.898971605266778004e-29
2.169113860764107504e-01 2.939410534210696547e-29
2.169837062827701113e-01 2.981776283467988239e-29
2.170560506013366198e-01 3.024745081325506128e-29
2.171284190401493175e-01 3.068325429402816049e-29
2.172008116072502437e-01 3.112526341558480148e-29
2.172732283106838802e-01 3.157355876962013837e-29
2.173456691584975120e-01 3.202823089357766916e-29
2.174181341587410610e-01 3.248936962988216658e-29
2.174906233194673355e-01 3.295706409888367642e-29
2.175631366487315033e-01 3.343140760006346499e-29
2.176356741545915907e-01 3.391249591287000408e-29
2.177082358451083166e-01 3.440041697791976371e-29
2.177808217283450920e-01 3.489526720051557618e-29
2.178534318123679092e-01 3.539714687353768893e-29
2.179260661052455916e-01 3.590615294043514385e-29
2.179987246150495994e-01 3.642238308142920071e-29
2.180714073498540018e-01 3.694594117672991533e-29
2.181441143177356989e-01 3.747692626773205781e-29
2.182168455267741725e-01 3.801544480825235001e-29
2.182896009850516517e-01 3.856160013432131397e-29
2.183623807006531414e-01 3.911550231205639437e-29
2.184351846816661447e-01 3.967725155239925392e-29
2.185080129361809675e-01 4.024696441148683377e-29
2.185808654722906363e-01 4.079709244727507709e-29
2.186537422980908973e-01 4.136425322869608306e-29
2.187266434216800781e-01 4.195766075634740407e-29
2.187995688511593373e-01 4.255945215223343183e-29
2.188725185946324148e-01 4.316976561767953407e-29
2.189454926602059093e-01 4.378871074007906329e-29
2.190184910559889175e-01 4.441640412823887098e-29
2.190915137900934506e-01 4.505296754006356760e-29
2.191645608706340176e-01 4.569852988781250401e-29
2.192376323057280141e-01 4.635320708354439114e-29
2.193107281034955280e-01 4.701713106237609649e-29
2.193838482720592009e-01 4.769043077877956811e-29
2.194569928195444219e-01 4.837323411161458680e-29
2.195301617540793837e-01 4.906566576683305537e-29
2.196033550837951098e-01 4.976786957166042397e-29
2.196765728168250387e-01 5.047997063161772619e-29
2.197498149613053564e-01 5.120211968341714696e-29
2.198230815253751358e-01 5.193444964191396297e-29
2.198963725171761974e-01 5.267708348743231627e-29
2.199696879448528597e-01 5.343019330073040965e-29
2.200430278165522724e-01 5.419389973783572318e-29
2.201163921404244161e-01 5.496835564129871453e-29
2.201897809246217141e-01 5.575371907329906063e-29
2.202631941772993929e-01 5.655012741354607058e-29
2.203366319066156487e-01 5.735773128009429133e-29
2.204100941207310926e-01 5.817670241051498585e-29
2.204835808278091391e-01 5.900718120568597800e-29
2.205570920360162002e-01 5.984932357206091082e-29
2.206306277535209359e-01 6.070329040098087216e-29
2.207041879884950875e-01 6.156925564392416310e-29
2.207777727491129216e-01 6.244738148492203692e-29
2.208513820435515085e-01 6.333782370059681380e-29
2.209250158799907215e-01 6.424075907653052934e-29
2.209986742666131265e-01 6.515635866571676249e-29
2.210723572116037872e-01 6.608478878444950841e-29
2.211460647231507926e-01 6.699667872718057733e-29
2.212197968094448131e-01 6.790377417103377713e-29
2.212935534786794056e-01 6.887037847756727835e-29
2.213673347390506529e-01 6.985049175767511779e-29
2.214411405987574410e-01 7.084431754087538298e-29
2.215149710660014593e-01 7.185203395919092273e-29
2.215888261489870892e-01 7.287382950713064596e-29
2.216627058559213492e-01 7.390990757078911461e-29
2.217366101950142554e-01 7.496033041301235193e-29
2.218105391744781829e-01 7.590360399656561697e-29
2.218844928025285601e-01 6.035446949000528067e-29
2.219584710873834243e-01 6.112970843274594155e-29
2.220324740372637273e-01 6.191388202448088261e-29
2.221065016603927245e-01 5.098396094888157156e-29
2.221805539649969741e-01 4.927380500620973257e-29
2.222546309593053104e-01 4.983995767375354033e-29
2.223287326515496209e-01 5.035826281039601273e-29
2.224028590499643465e-01 3.952259532547007496e-29
2.224770101627867591e-01 3.992564183241988990e-29
2.225511859982568508e-01 4.033118987020958798e-29
2.226253865646174723e-01 4.073921277137435105e-29
2.226996118701140004e-01 3.793390169414159072e-29
2.227738619229947814e-01 3.208904479984301824e-29
2.228481367315106876e-01 3.237311277333605887e-29
2.229224363039155887e-01 3.265801232626756246e-29
2.229967606484659637e-01 3.294371576420582387e-29
2.230711097734211501e-01 3.323019257297446392e-29
2.231454836870430392e-01 2.919869815133201878e-29
2.232198823975963531e-01 2.593767504962413630e-29
2.232943059133486452e-01 2.613102943064652409e-29
2.233687542425702999e-01 2.632417911911624772e-29
2.234432273935342272e-01 2.651708083698860363e-29
2.235177253745162795e-01 2.670968522781726228e-29
2.235922481937950568e-01 2.690194780036585838e-29
2.236667958596517958e-01 2.544610150656949965e-29
2.237413683803705922e-01 2.068681488583824778e-29
2.238159657642382616e-01 2.081032741480057249e-29
2.238905880195443676e-01 2.093302267325209155e-29
2.239652351545813047e-01 2.105485666109622120e-29
2.240399071776442985e-01 2.117579243374166065e-29
2.241146040970311837e-01 2.129577512471587807e-29
2.241893259210424594e-01 2.141477197811756288e-29
2.242640726579817612e-01 2.153274802511284899e-29
2.243388443161551671e-01 2.164964261963081099e-29
2.244136409038716973e-01 1.715617400918650176e-29
2.244884624294430642e-01 1.653619362810498538e-29
2.245633089011838113e-01 1.660654358831769368e-29
2.246381803274111189e-01 1.667572172007352279e-29
2.247130767164451093e-01 1.674369310569590216e-29
2.247879980766085972e-01 1.681042505264162258e-29
2.248629444162272006e-01 1.687587531186539489e-29
2.249379157436292576e-01 1.694001659386221232e-29
2.250129120671459648e-01 1.700282497562885511e-29
2.250879333951112116e-01 1.706425255167100897e-29
2.251629797358616902e-01 1.712426039094759956e-29
2.252380510977369521e-01 1.718234423242440970e-29
2.253131474890791575e-01 1.485911058992488044e-29
2.253882689182334642e-01 1.296983153633884543e-29
2.254634153935476393e-01 1.299973536000510020e-29
2.255385869233724194e-01 1.302835680910085702e-29
2.256137835160610117e-01 1.305566170770401261e-29
2.256890051799696761e-01 1.308163100037422890e-29
2.257642519234574763e-01 1.310624085040736137e-29
2.258395237548860568e-01 1.312946655851881059e-29
2.259148206826199490e-01 1.315128814379177443e-29
2.259901427150266262e-01 1.317167047385787966e-29
2.260654898604761431e-01 1.319059996399304012e-29
2.261408621273413300e-01 1.320805342067030659e-29
2.262162595239979868e-01 1.322400697403346133e-29
2.262916820588246058e-01 1.323843790194786873e-29
2.263671297402023996e-01 1.325132303683947913e-29
2.264426025765155503e-01 1.326264171699170422e-29
2.265181005761509325e-01 1.327236322495825065e-29
2.265936237474981685e-01 1.114343513008663100e-29
2.266691720989497116e-01 1.078871147462571656e-29
2.267447456389009020e-01 1.078759330644665139e-29
2.268203443757498550e-01 1.078511863566054863e-29
2.268959683178973508e-01 1.078126349319421741e-29
2.269716174737470005e-01 1.077600980406326094e-29
2.270472918517054128e-01 1.076934905322570571e-29
2.271229914601818334e-01 1.076126087350116069e-29
2.271987163075883942e-01 1.075174129481873984e-29
2.272744664023398364e-01 1.074078122766259086e-29
2.273502417528539543e-01 1.072835506649158956e-29
2.274260423675512066e-01 1.071445390496911127e-29
2.275018682548549664e-01 1.069907898243017616e-29
2.275777194231912992e-01 1.068220825742282127e-29
2.276535958809891014e-01 1.066382961247728689e-29
2.277294976366801560e-01 1.064393807089119241e-29
2.278054246986989662e-01 1.062251712113544134e-29
2.278813770754829215e-01 1.059956318605137225e-29
2.279573547754721874e-01 1.057507213325791199e-29
2.280333578071098155e-01 1.054903284847175498e-29
2.281093861788414112e-01 1.052143717868323690e-29
2.281854398991157440e-01 1.049227562241785594e-29
2.282615189763842478e-01 1.046154478828500714e-29
2.283376234191011045e-01 9.259237395033616821e-30
