# #Wavelength [um]    Spectral Flux [W/m2/um] for R=0.1*Rsol at 10 pc
2.000333353419446181e-01 1.789022263011500693e-33
2.001000282544393716e-01 1.822695087762350126e-33
2.001667434029507087e-01 1.856996858936167801e-33
2.002334807948923656e-01 1.891939231965085570e-33
2.003002404376805767e-01 1.927534071034588483e-33
2.003670223387338523e-01 1.963793474791799709e-33
2.004338265054734780e-01 2.000729752484809010e-33
2.005006529453228215e-01 2.038355445145464613e-33
2.005675016657081089e-01 2.076683338059597345e-33
2.006343726740577593e-01 2.115726412658127564e-33
2.007012659778028563e-01 2.155497922410279481e-33
2.007681815843769535e-01 2.196011341070354845e-33
2.008351195012158252e-01 2.237280433901847813e-33
2.009020797357580213e-01 2.279319161675430021e-33
2.009690622954444505e-01 2.322141777403368047e-33
2.010360671877184646e-01 2.365762797664209655e-33
2.011030944200260517e-01 2.410196973246027769e-33
2.011701439998155039e-01 2.455459359463340671e-33
2.012372159345377221e-01 2.501565285059765723e-33
2.013043102316459942e-01 2.548530336321149037e-33
2.013714268985961897e-01 2.596370395232641097e-33
2.014385659428465647e-01 2.645101666291502854e-33
2.015057273718580122e-01 2.694740611844919519e-33
2.015729111930936457e-01 2.745303989282590792e-33
2.016401174140193819e-01 2.796808921561113357e-33
2.017073460421033582e-01 2.849272781204005468e-33
2.017745970848165427e-01 2.902713286549098954e-33
2.018418705496318466e-01 2.957148483157461860e-33
2.019091664440252343e-01 3.012596762526196500e-33
2.019764847754748904e-01 3.069076838014515011e-33
2.020438255514614978e-01 3.126607745148755775e-33
2.021111887794682371e-01 3.185208865867927927e-33
2.021785744669808427e-01 3.244900006567098439e-33
2.022459826214875744e-01 3.305701272758562639e-33
2.023134132504791072e-01 3.367633134753132930e-33
2.023808663614485859e-01 3.430716471316501104e-33
2.024483419618916535e-01 3.494972504497541250e-33
2.025158400593067010e-01 3.560422901388739034e-33
2.025833606611942284e-01 3.627089696736009496e-33
2.026509037750575115e-01 3.694995307413596328e-33
2.027184694084022409e-01 3.764162575976383678e-33
2.027860575687366329e-01 3.834614789036918319e-33
2.028536682635713739e-01 3.906375625416925144e-33
2.029213015004195930e-01 3.979469202260268853e-33
2.029889572867970560e-01 4.053920072015855715e-33
2.030566356302220266e-01 4.129753280782680087e-33
2.031243365382152388e-01 4.206994284932338611e-33
2.031920600182997860e-01 4.285669019549740412e-33
2.032598060780015370e-01 4.365803890878291744e-33
2.033275747248486920e-01 4.447425786295418175e-33
2.033953659663720048e-01 4.530562102241211365e-33
2.034631798101047551e-01 4.615240756293154508e-33
2.035310162635826925e-01 4.701490093089184277e-33
2.035988753343440927e-01 4.789339049762837681e-33
2.036667570299298957e-01 4.878817074864933040e-33
2.037346613578833732e-01 4.969954154045603486e-33
2.038025883257502113e-01 5.062780799590181410e-33
2.038705379410788443e-01 5.157328085621003712e-33
2.039385102114202319e-01 5.253627693527724913e-33
2.040065051443276378e-01 5.351711859136294576e-33
2.040745227473570733e-01 5.451613383714744496e-33
2.041425630280668535e-01 5.553365683281790323e-33
2.042106259940180135e-01 5.657002797629624732e-33
2.042787116527738922e-01 5.762559370292746575e-33
2.043468200119006872e-01 5.870070705859562081e-33
2.044149510789666779e-01 5.979572702217944175e-33
2.044831048615429747e-01 6.091101925493436582e-33
2.045512813672031860e-01 6.204695697656352394e-33
2.046194806035233626e-01 6.320391868321410499e-33
2.046877025780821091e-01 6.438229079569737909e-33
2.047559472984605278e-01 6.558246661010357145e-33
2.048242147722422746e-01 6.680484689227230829e-33
2.048925050070136422e-01 6.804983887590391370e-33
2.049608180103632826e-01 6.931785751801270043e-33
2.050291537898824290e-01 7.060932587930702948e-33
2.050975123531648958e-01 7.192467434386227469e-33
2.051658937078068567e-01 7.326434126466797497e-33
2.052342978614073443e-01 7.462877217490193034e-33
2.053027248215676392e-01 7.601842227515846582e-33
2.053711745958917423e-01 7.743375335197405944e-33
2.054396471919859579e-01 7.887523715122148293e-33
2.055081426174593107e-01 8.034335314573984975e-33
2.055766608799234618e-01 8.183858922626170962e-33
2.056452019869922931e-01 8.336144285912429347e-33
2.057137659462825452e-01 8.491242075748344316e-33
2.057823527654132068e-01 8.649203812015030414e-33
2.058509624520060421e-01 8.810081921085686873e-33
2.059195950136853137e-01 8.973929911842441819e-33
2.059882504580776430e-01 9.140802234074556747e-33
2.060569287928124271e-01 9.310754168921269758e-33
2.061256300255215612e-01 9.483842221746653393e-33
2.061943541638392718e-01 9.660123785217649297e-33
2.062631012154026722e-01 9.839657343401379078e-33
2.063318711878511513e-01 1.002250243997919429e-32
2.064006640888267352e-01 1.020871972069063570e-32
2.064694799259740032e-01 1.039837091426668359e-32
2.065383187069400606e-01 1.059151883373185952e-32
2.066071804393747324e-01 1.078822745174702261e-32
2.066760651309300367e-01 1.098856194702045263e-32
2.067449727892608502e-01 1.119258867220503958e-32
2.068139034220245753e-01 1.140037512189631615e-32
2.068828570368809461e-01 1.161199011191561641e-32
2.069518336414924720e-01 1.182750362594473408e-32
2.070208332435241882e-01 1.204698690996580860e-32
2.070898558506435450e-01 1.227051262315000579e-32
2.071589014705207121e-01 1.249815459792538855e-32
2.072279701108283301e-01 1.272998808224992894e-32
2.072970617792416481e-01 1.296608969212475202e-32
2.073661764834383581e-01 1.320653734463706951e-32
2.074353142310989551e-01 1.345141050956497903e-32
2.075044750299061269e-01 1.370079003067335777e-32
2.075736588875455313e-01 1.395475822031199667e-32
2.076428658117050741e-01 1.421339885696467191e-32
2.077120958100753256e-01 1.447679721779898188e-32
2.077813488903494654e-01 1.474504023828370926e-32
2.078506250602231986e-01 1.501821629711303594e-32
2.079199243273949227e-01 1.529641544596594351e-32
2.079892466995653943e-01 1.557972947296133207e-32
2.080585921844379516e-01 1.586825156365787447e-32
2.081279607897187078e-01 1.616207678474615463e-32
2.081973525231161637e-01 1.646130191225576791e-32
2.082667673923413176e-01 1.676602546226364935e-32
2.083362054051080270e-01 1.707634759712606107e-32
2.084056665691325916e-01 1.739237048532099445e-32
2.084751508921337260e-01 1.771419803314109608e-32
2.085446583818328925e-01 1.804193617995190700e-32
2.086141890459540238e-01 1.837569248841025399e-32
2.086837428922236892e-01 1.871557677600710688e-32
2.087533199283710950e-01 1.906170070060879693e-32
2.088229201621278897e-01 1.941417794359184277e-32
2.088925436012284420e-01 1.977312422856084936e-32
2.089621902534096187e-01 2.013865733910311283e-32
2.090318601264107845e-01 2.051089733092190044e-32
2.091015532279739131e-01 2.088996635702150306e-32
2.091712695658437537e-01 2.127598867026179955e-32
2.092410091477674705e-01 2.166909094353688129e-32
2.093107719814948364e-01 2.206940206170934207e-32
2.093805580747781780e-01 2.247705320798321726e-32
2.094503674353725420e-01 2.289217791898283281e-32
2.095202000710353341e-01 2.331491221186511166e-32
2.095900559895266801e-01 2.374539460595607642e-32
2.096599351986093152e-01 2.418376585867473873e-32
2.097298377060485552e-01 2.463016966594461432e-32
2.097997635196123811e-01 2.508475207047452820e-32
2.098697126470710494e-01 2.554766175512915157e-32
2.099396850961977035e-01 2.601905023945090548e-32
2.100096808747680677e-01 2.649907133123776034e-32
2.100796999905602536e-01 2.698788229158680237e-32
2.101497424513552592e-01 2.748564282654174857e-32
2.102198082649363864e-01 2.799251533916958246e-32
2.102898974390897679e-01 2.850866565570588638e-32
2.103600099816040347e-01 2.903426226182284727e-32
2.104301459002703434e-01 2.956947655272960732e-32
2.105003052028824040e-01 3.011448336355258258e-32
2.105704878972368133e-01 3.066946065588633341e-32
2.106406939911325826e-01 3.123458925757109314e-32
2.107109234923712215e-01 3.181005353602509886e-32
2.107811764087569872e-01 3.239604111462537859e-32
2.108514527480967737e-01 3.299274293093278628e-32
2.109217525181998620e-01 3.360035357768284248e-32
2.109920757268783642e-01 3.421907098910305329e-32
2.110624223819471124e-01 3.484909646615373875e-32
2.111327924912229648e-01 3.549063512176050835e-32
2.112031860625259994e-01 3.614389623381699384e-32
2.112736031036786255e-01 3.680909216235210826e-32
2.113440436225058616e-01 3.748643893433133388e-32
2.114145076268353352e-01 3.817615741321734155e-32
2.114849951244974768e-01 3.887847142062542100e-32
2.115555061233250489e-01 3.959360952485380697e-32
2.116260406311536724e-01 4.032180417911590292e-32
2.116965986558212720e-01 4.106329190195649495e-32
2.117671802051687147e-01 4.181831365780581331e-32
2.118377852870393374e-01 4.258711434969465969e-32
2.119084139092790309e-01 4.336994396014456396e-32
2.119790660797364057e-01 4.416705631271036077e-32
2.120497418062626260e-01 4.497871007458380943e-32
2.121204410967115483e-01 4.580516861262698130e-32
2.121911639589395826e-01 4.664669994684678609e-32
2.122619104008056923e-01 4.750357685467846506e-32
2.123326804301716719e-01 4.837607708342190172e-32
2.124034740549016753e-01 4.926448355808206777e-32
2.124742912828626595e-01 5.016908368416674432e-32
2.125451321219241629e-01 5.109017092366237928e-32
2.126159965799583329e-01 5.202804323419795161e-32
2.126868846648399536e-01 5.298300425776251202e-32
2.127577963844464737e-01 5.395536360853306983e-32
2.128287317466578121e-01 5.494543488403665418e-32
2.128996907593566912e-01 5.595353866908990042e-32
2.129706734304284144e-01 5.698000119822935191e-32
2.130416797677608942e-01 5.802515425508880434e-32
2.131127097792446523e-01 5.908933577235207322e-32
2.131837634727728747e-01 6.017288901417571757e-32
2.132548408562413289e-01 6.127616468701711505e-32
2.133259419375485300e-01 6.239951889300644903e-32
2.133970667245954633e-01 6.354331411840766890e-32
2.134682152252859177e-01 6.470791970509645932e-32
2.135393874475261800e-01 6.589371125014925909e-32
2.136105833992251735e-01 6.710107158994888734e-32
2.136818030882946251e-01 6.833038964556804439e-32
2.137530465226487597e-01 6.958206266476579828e-32
2.138243137102044944e-01 7.085649304453509530e-32
2.138956046588812998e-01 7.215409245705322480e-32
2.139669193766012834e-01 7.347527857847570779e-32
2.140382578712894945e-01 7.482047675936771729e-32
2.141096201508731200e-01 7.606459823662795834e-32
2.141810062232823719e-01 7.745593789335081540e-32
2.142524160964500157e-01 7.887252834686493218e-32
2.143238497783114260e-01 8.031482411634743473e-32
2.143953072768046697e-01 8.178328728659815218e-32
2.144667885998703394e-01 8.327838937666779085e-32
2.145382937554518032e-01 8.480060916420281434e-32
2.146098227514950108e-01 8.635043530804191701e-32
2.146813755959486869e-01 8.792836335122978995e-32
2.147529522967639715e-01 8.938209412528851804e-32
2.148245528618948630e-01 9.093865694926179617e-32
2.148961772992979413e-01 9.259808254883619557e-32
2.149678256169323953e-01 9.428753178037538974e-32
2.150394978227601894e-01 9.600754233700005912e-32
2.151111939247458416e-01 9.775866118244719129e-32
2.151829139308563954e-01 9.954144626420488980e-32
2.152546578490618367e-01 1.013564652994380148e-31
2.153264256873347049e-01 1.032042947127082757e-31
2.153982174536501759e-01 1.050855216016996895e-31
2.154700331559858406e-01 1.070007436863715683e-31
2.155418728023224262e-01 1.089505709102428779e-31
2.156137364006430468e-01 1.108062545979426111e-31
2.156856239589334256e-01 1.126547510212009965e-31
2.157575354851821448e-01 1.147045342178380543e-31
2.158294709873802009e-01 1.167912649029481817e-31
2.159014304735215051e-01 1.189156005769759509e-31
2.159734139516024387e-01 1.210782115278028351e-31
2.160454214296221587e-01 1.232797803304571413e-31
2.161174529155825697e-01 1.255209997956733584e-31
2.161895084174878801e-01 1.278025766000397100e-31
2.162615879433454069e-01 1.301252295429890961e-31
2.163336915011650208e-01 1.324896877109576687e-31
2.164058190989590347e-01 1.348966961972987031e-31
2.164779707447426205e-01 1.373470115715415193e-31
2.165501464465336701e-01 1.398414034712401102e-31
2.166223462123525456e-01 1.423806558859125530e-31
2.166945700502225791e-01 1.449655656513427657e-31
2.167668179681694340e-01 1.475969431939057163e-31
2.168390899742217715e-01 1.500863743045651811e-31
2.169113860764107504e-01 1.526453274355642584e-31
2.169837062827701113e-01 1.554121605907527058e-31
2.170560506013366198e-01 1.582286160825973602e-31
2.171284190401493175e-01 1.610955714306037232e-31
2.172008116072502437e-01 1.640139215835641207e-31
2.172732283106838802e-01 1.669845743107547331e-31
2.173456691584975120e-01 1.700084530618042481e-31
2.174181341587410610e-01 1.730864978073441520e-31
2.174906233194673355e-01 1.762196668361351237e-31
2.175631366487315033e-01 1.794089329536795179e-31
2.176356741545915907e-01 1.826552845761992898e-31
2.177082358451083166e-01 1.859597288767957275e-31
2.177808217283450920e-01 1.893232907264772982e-31
2.178534318123679092e-01 1.927470105692123311e-31
2.179260661052455916e-01 1.962319516189102172e-31
2.179987246150495994e-01 1.997791880204483601e-31
2.180714073498540018e-01 2.033898188164028471e-31
2.181441143177356989e-01 2.070649578209309670e-31
2.182168455267741725e-01 2.108057399030422061e-31
2.182896009850516517e-01 2.146133206341722749e-31
2.183623807006531414e-01 2.184888714174783527e-31
2.184351846816661447e-01 2.224335876401855996e-31
2.185080129361809675e-01 2.264486817013934541e-31
2.185808654722906363e-01 2.301528007269141243e-31
2.186537422980908973e-01 2.340486635304838145e-31
2.187266434216800781e-01 2.382663130636013962e-31
2.187995688511593373e-01 2.425589923102860552e-31
2.188725185946324148e-01 2.469280149394245196e-31
2.189454926602059093e-01 2.513747147112836503e-31
2.190184910559889175e-01 2.559004394485562207e-31
2.190915137900934506e-01 2.605065699705432159e-31
2.191645608706340176e-01 2.651945094481417915e-31
2.192376323057280141e-01 2.699656793436377553e-31
2.193107281034955280e-01 2.748215297011750400e-31
2.193838482720592009e-01 2.797635298169136813e-31
2.194569928195444219e-01 2.847931792107844173e-31
2.195301617540793837e-01 2.899119995652718994e-31
2.196033550837951098e-01 2.951215355893121306e-31
2.196765728168250387e-01 3.004233654841015985e-31
2.197498149613053564e-01 3.058190866755384331e-31
2.198230815253751358e-01 3.113103261925812325e-31
2.198963725171761974e-01 3.168987309304112871e-31
2.199696879448528597e-01 3.225859906429466273e-31
2.200430278165522724e-01 3.283738077607002644e-31
2.201163921404244161e-01 3.342639203757233734e-31
2.201897809246217141e-01 3.402580957455882228e-31
2.202631941772993929e-01 3.463581215071819936e-31
2.203366319066156487e-01 3.525658250410074386e-31
2.204100941207310926e-01 3.588830638269621773e-31
2.204835808278091391e-01 3.653117180557361486e-31
2.205570920360162002e-01 3.718536961623057989e-31
2.206306277535209359e-01 3.785109477464868928e-31
2.207041879884950875e-01 3.852854558784888548e-31
2.207777727491129216e-01 3.921792253304970755e-31
2.208513820435515085e-01 3.991942982105451818e-31
2.209250158799907215e-01 4.063327476794994052e-31
2.209986742666131265e-01 4.135966841320501390e-31
2.210723572116037872e-01 4.209882471475387834e-31
2.211460647231507926e-01 4.280043870114866326e-31
2.212197968094448131e-01 4.348387083186220820e-31
2.212935534786794056e-01 4.425939264210878432e-31
2.213673347390506529e-01 4.504848594376561355e-31
2.214411405987574410e-01 4.585138155889751415e-31
2.215149710660014593e-01 4.666831243361547766e-31
2.215888261489870892e-01 4.749951545298083777e-31
2.216627058559213492e-01 4.834523178546599529e-31
2.217366101950142554e-01 4.920570526539001484e-31
2.218105391744781829e-01 5.007926184199200847e-31
2.218844928025285601e-01 4.156160055563073905e-31
2.219584710873834243e-01 4.223327627260761148e-31
2.220324740372637273e-01 4.291480458131704736e-31
2.221065016603927245e-01 3.346000181114339987e-31
2.221805539649969741e-01 3.138901491250595224e-31
2.222546309593053104e-01 3.180468806305234067e-31
2.223287326515496209e-01 3.218129756605834819e-31
2.224028590499643465e-01 2.284993649417270720e-31
2.224770101627867591e-01 2.310766214145344810e-31
2.225511859982568508e-01 2.336684493568289559e-31
2.226253865646174723e-01 2.362744740587094608e-31
2.226996118701140004e-01 2.151488875644709341e-31
2.227738619229947814e-01 1.709396529767563510e-31
2.228481367315106876e-01 1.725605979429223195e-31
2.229224363039155887e-01 1.741845125120246803e-31
2.229967606484659637e-01 1.758110903444660193e-31
2.230711097734211501e-01 1.774400961106440159e-31
2.231454836870430392e-01 1.505634693285834237e-31
2.232198823975963531e-01 1.289863679333433976e-31
2.232943059133486452e-01 1.300001572349627581e-31
2.233687542425702999e-01 1.310117914344834250e-31
2.234432273935342272e-01 1.320210159219150601e-31
2.235177253745162795e-01 1.330275672320540697e-31
2.235922481937950568e-01 1.340311895622418932e-31
2.236667958596517958e-01 1.252623680161616000e-31
2.237413683803705922e-01 9.730385633023048744e-32
2.238159657642382616e-01 9.792350146978736474e-32
2.238905880195443676e-01 9.853902598389270004e-32
2.239652351545813047e-01 9.915025299635358803e-32
2.240399071776442985e-01 9.975699079812514273e-32
2.241146040970311837e-01 1.003589987455420541e-31
2.241893259210424594e-01 1.009561109673194244e-31
2.242640726579817612e-01 1.015481894711210424e-31
2.243388443161551671e-01 1.021349398028724304e-31
2.244136409038716973e-01 7.815092458269064463e-32
2.244884624294430642e-01 7.490332945076302894e-32
2.245633089011838113e-01 7.526622181429122789e-32
2.246381803274111189e-01 7.562431226037222864e-32
2.247130767164451093e-01 7.597745527629873351e-32
2.247879980766085972e-01 7.632550706739721495e-32
2.248629444162272006e-01 7.666829352565584977e-32
2.249379157436292576e-01 7.700572079025041165e-32
2.250129120671459648e-01 7.733767340506591727e-32
2.250879333951112116e-01 7.766398132777343850e-32
2.251629797358616902e-01 7.798445270017000537e-32
2.252380510977369521e-01 7.829456651072821170e-32
2.253131474890791575e-01 6.683723612110933238e-32
2.253882689182334642e-01 5.768938800143979118e-32
2.254634153935476393e-01 5.788053230305572552e-32
2.255385869233724194e-01 5.806694009130724776e-32
2.256137835160610117e-01 5.824844833803259740e-32
2.256890051799696761e-01 5.842499472074116791e-32
2.257642519234574763e-01 5.859648340767620272e-32
2.258395237548860568e-01 5.876282338687506120e-32
2.259148206826199490e-01 5.892392132317460722e-32
2.259901427150266262e-01 5.907963394776067618e-32
2.260654898604761431e-01 5.922991079562931593e-32
2.261408621273413300e-01 5.937465460026213404e-32
2.262162595239979868e-01 5.951377207278679439e-32
2.262916820588246058e-01 5.964717182764764346e-32
2.263671297402023996e-01 5.977476052869492154e-32
2.264426025765155503e-01 5.989643451790460022e-32
2.265181005761509325e-01 6.001207784616163267e-32
2.265936237474981685e-01 5.016172006508793014e-32
2.266691720989497116e-01 4.859410633871181111e-32
2.267447456389009020e-01 4.866553119803187310e-32
2.268203443757498550e-01 4.873194355290913552e-32
2.268959683178973508e-01 4.879327252631206716e-32
2.269716174737470005e-01 4.884940859768211956e-32
2.270472918517054128e-01 4.890031044432094370e-32
2.271229914601818334e-01 4.894588471531976800e-32
2.271987163075883942e-01 4.898609523141406521e-32
2.272744664023398364e-01 4.902091010665548081e-32
2.273502417528539543e-01 4.905020234584240901e-32
2.274260423675512066e-01 4.907390991685364770e-32
2.275018682548549664e-01 4.909202776522176195e-32
2.275777194231912992e-01 4.910446739191139233e-32
2.276535958809891014e-01 4.911114000515882587e-32
2.277294976366801560e-01 4.911200729799522316e-32
2.278054246986989662e-01 4.910698461478250913e-32
2.278813770754829215e-01 4.909604777244822649e-32
2.279573547754721874e-01 4.907913642404492123e-32
2.280333578071098155e-01 4.905620887516680991e-32
2.281093861788414112e-01 4.902719681994880003e-32
2.281854398991157440e-01 4.899201564548695682e-32
2.282615189763842478e-01 4.895066219612945875e-32
2.283376234191011045e-01 4.353998159866998016e-32
